source_sample,relative_time_s,raw_MLII
358200,0.0,-0.155
358201,0.002777777777777778,-0.14
358202,0.005555555555555556,-0.13
358203,0.008333333333333333,-0.16
358204,0.011111111111111112,-0.19
358205,0.013888888888888888,-0.21
358206,0.016666666666666666,-0.23
358207,0.019444444444444445,-0.2
358208,0.022222222222222223,-0.195
358209,0.025,-0.21
358210,0.027777777777777776,-0.24
358211,0.030555555555555555,-0.27
358212,0.03333333333333333,-0.26
358213,0.03611111111111111,-0.24
358214,0.03888888888888889,-0.225
358215,0.041666666666666664,-0.23
358216,0.044444444444444446,-0.255
358217,0.04722222222222222,-0.27
358218,0.05,-0.27
358219,0.05277777777777778,-0.255
358220,0.05555555555555555,-0.245
358221,0.058333333333333334,-0.245
358222,0.06111111111111111,-0.265
358223,0.06388888888888888,-0.275
358224,0.06666666666666667,-0.265
358225,0.06944444444444445,-0.26
358226,0.07222222222222222,-0.27
358227,0.075,-0.265
358228,0.07777777777777778,-0.285
358229,0.08055555555555556,-0.265
358230,0.08333333333333333,-0.25
358231,0.08611111111111111,-0.23
358232,0.08888888888888889,-0.22
358233,0.09166666666666666,-0.255
358234,0.09444444444444444,-0.27
358235,0.09722222222222222,-0.28
358236,0.1,-0.25
358237,0.10277777777777777,-0.225
358238,0.10555555555555556,-0.22
358239,0.10833333333333334,-0.215
358240,0.1111111111111111,-0.22
358241,0.11388888888888889,-0.225
358242,0.11666666666666667,-0.195
358243,0.11944444444444445,-0.115
358244,0.12222222222222222,-0.01
358245,0.125,0.12
358246,0.12777777777777777,0.23
358247,0.13055555555555556,0.335
358248,0.13333333333333333,0.47
358249,0.1361111111111111,0.58
358250,0.1388888888888889,0.67
358251,0.14166666666666666,0.775
358252,0.14444444444444443,0.905
358253,0.14722222222222223,1.075
358254,0.15,1.25
358255,0.1527777777777778,1.435
358256,0.15555555555555556,1.65
358257,0.15833333333333333,1.85
358258,0.16111111111111112,2.005
358259,0.1638888888888889,2.11
358260,0.16666666666666666,2.155
358261,0.16944444444444445,2.115
358262,0.17222222222222222,1.955
358263,0.175,1.635
358264,0.17777777777777778,1.225
358265,0.18055555555555555,0.85
358266,0.18333333333333332,0.6
358267,0.18611111111111112,0.44
358268,0.18888888888888888,0.375
358269,0.19166666666666668,0.325
358270,0.19444444444444445,0.295
358271,0.19722222222222222,0.275
358272,0.2,0.245
358273,0.20277777777777778,0.215
358274,0.20555555555555555,0.18
358275,0.20833333333333334,0.115
358276,0.2111111111111111,0.065
358277,0.21388888888888888,0.0
358278,0.21666666666666667,-0.03
358279,0.21944444444444444,-0.055
358280,0.2222222222222222,-0.075
358281,0.225,-0.105
358282,0.22777777777777777,-0.16
358283,0.23055555555555557,-0.195
358284,0.23333333333333334,-0.22
358285,0.2361111111111111,-0.245
358286,0.2388888888888889,-0.275
358287,0.24166666666666667,-0.3
358288,0.24444444444444444,-0.33
358289,0.24722222222222223,-0.37
358290,0.25,-0.385
358291,0.25277777777777777,-0.395
358292,0.25555555555555554,-0.39
358293,0.25833333333333336,-0.395
358294,0.2611111111111111,-0.415
358295,0.2638888888888889,-0.44
358296,0.26666666666666666,-0.44
358297,0.26944444444444443,-0.45
358298,0.2722222222222222,-0.46
358299,0.275,-0.49
358300,0.2777777777777778,-0.495
358301,0.28055555555555556,-0.5
358302,0.2833333333333333,-0.495
358303,0.2861111111111111,-0.475
358304,0.28888888888888886,-0.485
358305,0.2916666666666667,-0.485
358306,0.29444444444444445,-0.495
358307,0.2972222222222222,-0.52
358308,0.3,-0.505
358309,0.30277777777777776,-0.48
358310,0.3055555555555556,-0.495
358311,0.30833333333333335,-0.5
358312,0.3111111111111111,-0.515
358313,0.3138888888888889,-0.53
358314,0.31666666666666665,-0.525
358315,0.3194444444444444,-0.5
358316,0.32222222222222224,-0.51
358317,0.325,-0.53
358318,0.3277777777777778,-0.525
358319,0.33055555555555555,-0.555
358320,0.3333333333333333,-0.545
358321,0.33611111111111114,-0.54
358322,0.3388888888888889,-0.555
358323,0.3416666666666667,-0.565
358324,0.34444444444444444,-0.58
358325,0.3472222222222222,-0.595
358326,0.35,-0.61
358327,0.3527777777777778,-0.59
358328,0.35555555555555557,-0.585
358329,0.35833333333333334,-0.605
358330,0.3611111111111111,-0.625
358331,0.3638888888888889,-0.62
358332,0.36666666666666664,-0.61
358333,0.36944444444444446,-0.595
358334,0.37222222222222223,-0.615
358335,0.375,-0.645
358336,0.37777777777777777,-0.67
358337,0.38055555555555554,-0.69
358338,0.38333333333333336,-0.675
358339,0.3861111111111111,-0.66
358340,0.3888888888888889,-0.68
358341,0.39166666666666666,-0.675
358342,0.39444444444444443,-0.7
358343,0.3972222222222222,-0.715
358344,0.4,-0.72
358345,0.4027777777777778,-0.7
358346,0.40555555555555556,-0.685
358347,0.4083333333333333,-0.685
358348,0.4111111111111111,-0.7
358349,0.41388888888888886,-0.705
358350,0.4166666666666667,-0.69
358351,0.41944444444444445,-0.675
358352,0.4222222222222222,-0.65
358353,0.425,-0.65
358354,0.42777777777777776,-0.64
358355,0.4305555555555556,-0.64
358356,0.43333333333333335,-0.63
358357,0.4361111111111111,-0.625
358358,0.4388888888888889,-0.6
358359,0.44166666666666665,-0.58
358360,0.4444444444444444,-0.565
358361,0.44722222222222224,-0.525
358362,0.45,-0.48
358363,0.4527777777777778,-0.445
358364,0.45555555555555555,-0.415
358365,0.4583333333333333,-0.415
358366,0.46111111111111114,-0.425
358367,0.4638888888888889,-0.41
358368,0.4666666666666667,-0.395
358369,0.46944444444444444,-0.345
358370,0.4722222222222222,-0.34
358371,0.475,-0.32
358372,0.4777777777777778,-0.31
358373,0.48055555555555557,-0.315
358374,0.48333333333333334,-0.275
358375,0.4861111111111111,-0.245
358376,0.4888888888888889,-0.225
358377,0.49166666666666664,-0.22
358378,0.49444444444444446,-0.245
358379,0.49722222222222223,-0.245
358380,0.5,-0.24
358381,0.5027777777777778,-0.215
358382,0.5055555555555555,-0.205
358383,0.5083333333333333,-0.19
358384,0.5111111111111111,-0.205
358385,0.5138888888888888,-0.2
358386,0.5166666666666667,-0.215
358387,0.5194444444444445,-0.2
358388,0.5222222222222223,-0.215
358389,0.525,-0.23
358390,0.5277777777777778,-0.23
358391,0.5305555555555556,-0.24
358392,0.5333333333333333,-0.225
358393,0.5361111111111111,-0.235
358394,0.5388888888888889,-0.225
358395,0.5416666666666666,-0.24
358396,0.5444444444444444,-0.23
358397,0.5472222222222223,-0.22
358398,0.55,-0.21
358399,0.5527777777777778,-0.23
358400,0.5555555555555556,-0.215
358401,0.5583333333333333,-0.225
358402,0.5611111111111111,-0.255
358403,0.5638888888888889,-0.27
358404,0.5666666666666667,-0.265
358405,0.5694444444444444,-0.25
358406,0.5722222222222222,-0.24
358407,0.575,-0.25
358408,0.5777777777777777,-0.26
358409,0.5805555555555556,-0.27
358410,0.5833333333333334,-0.245
358411,0.5861111111111111,-0.23
358412,0.5888888888888889,-0.22
358413,0.5916666666666667,-0.23
358414,0.5944444444444444,-0.28
358415,0.5972222222222222,-0.275
358416,0.6,-0.275
358417,0.6027777777777777,-0.26
358418,0.6055555555555555,-0.25
358419,0.6083333333333333,-0.24
358420,0.6111111111111112,-0.25
358421,0.6138888888888889,-0.255
358422,0.6166666666666667,-0.24
358423,0.6194444444444445,-0.24
358424,0.6222222222222222,-0.235
358425,0.625,-0.25
358426,0.6277777777777778,-0.255
358427,0.6305555555555555,-0.25
358428,0.6333333333333333,-0.235
358429,0.6361111111111111,-0.225
358430,0.6388888888888888,-0.215
358431,0.6416666666666667,-0.235
358432,0.6444444444444445,-0.23
358433,0.6472222222222223,-0.23
358434,0.65,-0.23
358435,0.6527777777777778,-0.225
358436,0.6555555555555556,-0.215
358437,0.6583333333333333,-0.22
358438,0.6611111111111111,-0.23
358439,0.6638888888888889,-0.235
358440,0.6666666666666666,-0.23
358441,0.6694444444444444,-0.205
358442,0.6722222222222223,-0.195
358443,0.675,-0.21
358444,0.6777777777777778,-0.225
358445,0.6805555555555556,-0.23
358446,0.6833333333333333,-0.215
358447,0.6861111111111111,-0.175
358448,0.6888888888888889,-0.17
358449,0.6916666666666667,-0.16
358450,0.6944444444444444,-0.2
358451,0.6972222222222222,-0.18
358452,0.7,-0.175
358453,0.7027777777777777,-0.155
358454,0.7055555555555556,-0.12
358455,0.7083333333333334,-0.12
358456,0.7111111111111111,-0.15
358457,0.7138888888888889,-0.165
358458,0.7166666666666667,-0.165
358459,0.7194444444444444,-0.125
358460,0.7222222222222222,-0.095
358461,0.725,-0.105
358462,0.7277777777777777,-0.13
358463,0.7305555555555555,-0.16
358464,0.7333333333333333,-0.155
358465,0.7361111111111112,-0.14
358466,0.7388888888888889,-0.12
358467,0.7416666666666667,-0.125
358468,0.7444444444444445,-0.135
358469,0.7472222222222222,-0.145
358470,0.75,-0.165
358471,0.7527777777777778,-0.18
358472,0.7555555555555555,-0.175
358473,0.7583333333333333,-0.175
358474,0.7611111111111111,-0.185
358475,0.7638888888888888,-0.195
358476,0.7666666666666667,-0.19
358477,0.7694444444444445,-0.21
358478,0.7722222222222223,-0.21
358479,0.775,-0.23
358480,0.7777777777777778,-0.23
358481,0.7805555555555556,-0.235
358482,0.7833333333333333,-0.225
358483,0.7861111111111111,-0.205
358484,0.7888888888888889,-0.195
358485,0.7916666666666666,-0.22
358486,0.7944444444444444,-0.24
358487,0.7972222222222223,-0.27
358488,0.8,-0.25
358489,0.8027777777777778,-0.21
358490,0.8055555555555556,-0.205
358491,0.8083333333333333,-0.2
358492,0.8111111111111111,-0.225
358493,0.8138888888888889,-0.235
358494,0.8166666666666667,-0.22
358495,0.8194444444444444,-0.21
358496,0.8222222222222222,-0.195
358497,0.825,-0.215
358498,0.8277777777777777,-0.215
358499,0.8305555555555556,-0.22
358500,0.8333333333333334,-0.22
358501,0.8361111111111111,-0.22
358502,0.8388888888888889,-0.21
358503,0.8416666666666667,-0.19
358504,0.8444444444444444,-0.17
358505,0.8472222222222222,-0.105
358506,0.85,-0.01
358507,0.8527777777777777,0.12
358508,0.8555555555555555,0.255
358509,0.8583333333333333,0.37
358510,0.8611111111111112,0.49
358511,0.8638888888888889,0.615
358512,0.8666666666666667,0.78
358513,0.8694444444444445,1.0
358514,0.8722222222222222,1.25
358515,0.875,1.5
358516,0.8777777777777778,1.74
358517,0.8805555555555555,1.96
358518,0.8833333333333333,2.13
358519,0.8861111111111111,2.235
358520,0.8888888888888888,2.25
358521,0.8916666666666667,2.185
358522,0.8944444444444445,2.06
358523,0.8972222222222223,1.825
358524,0.9,1.46
358525,0.9027777777777778,1.01
358526,0.9055555555555556,0.615
358527,0.9083333333333333,0.365
358528,0.9111111111111111,0.265
358529,0.9138888888888889,0.235
358530,0.9166666666666666,0.23
358531,0.9194444444444444,0.21
358532,0.9222222222222223,0.155
358533,0.925,0.11
358534,0.9277777777777778,0.06
358535,0.9305555555555556,0.005
358536,0.9333333333333333,-0.025
358537,0.9361111111111111,-0.025
358538,0.9388888888888889,-0.025
358539,0.9416666666666667,-0.07
358540,0.9444444444444444,-0.1
358541,0.9472222222222222,-0.14
358542,0.95,-0.165
358543,0.9527777777777777,-0.175
358544,0.9555555555555556,-0.195
358545,0.9583333333333334,-0.24
358546,0.9611111111111111,-0.295
358547,0.9638888888888889,-0.325
358548,0.9666666666666667,-0.345
358549,0.9694444444444444,-0.355
358550,0.9722222222222222,-0.365
358551,0.975,-0.385
358552,0.9777777777777777,-0.385
358553,0.9805555555555555,-0.395
358554,0.9833333333333333,-0.425
358555,0.9861111111111112,-0.41
358556,0.9888888888888889,-0.39
358557,0.9916666666666667,-0.41
358558,0.9944444444444445,-0.42
358559,0.9972222222222222,-0.415
358560,1.0,-0.405
358561,1.0027777777777778,-0.385
358562,1.0055555555555555,-0.405
358563,1.0083333333333333,-0.405
358564,1.011111111111111,-0.435
358565,1.0138888888888888,-0.445
358566,1.0166666666666666,-0.435
358567,1.0194444444444444,-0.425
358568,1.0222222222222221,-0.425
358569,1.025,-0.445
358570,1.0277777777777777,-0.47
358571,1.0305555555555554,-0.485
358572,1.0333333333333334,-0.465
358573,1.0361111111111112,-0.445
358574,1.038888888888889,-0.455
358575,1.0416666666666667,-0.47
358576,1.0444444444444445,-0.485
358577,1.0472222222222223,-0.495
358578,1.05,-0.5
358579,1.0527777777777778,-0.48
358580,1.0555555555555556,-0.48
358581,1.0583333333333333,-0.485
358582,1.0611111111111111,-0.505
358583,1.0638888888888889,-0.515
358584,1.0666666666666667,-0.535
358585,1.0694444444444444,-0.53
358586,1.0722222222222222,-0.53
358587,1.075,-0.545
358588,1.0777777777777777,-0.555
358589,1.0805555555555555,-0.56
358590,1.0833333333333333,-0.57
358591,1.086111111111111,-0.57
358592,1.0888888888888888,-0.585
358593,1.0916666666666666,-0.59
358594,1.0944444444444446,-0.62
358595,1.0972222222222223,-0.62
358596,1.1,-0.6
358597,1.1027777777777779,-0.605
358598,1.1055555555555556,-0.6
358599,1.1083333333333334,-0.615
358600,1.1111111111111112,-0.63
358601,1.113888888888889,-0.635
358602,1.1166666666666667,-0.62
358603,1.1194444444444445,-0.605
358604,1.1222222222222222,-0.595
358605,1.125,-0.595
358606,1.1277777777777778,-0.625
358607,1.1305555555555555,-0.61
358608,1.1333333333333333,-0.595
358609,1.136111111111111,-0.565
358610,1.1388888888888888,-0.55
358611,1.1416666666666666,-0.55
358612,1.1444444444444444,-0.545
358613,1.1472222222222221,-0.545
358614,1.15,-0.54
358615,1.1527777777777777,-0.49
358616,1.1555555555555554,-0.46
358617,1.1583333333333334,-0.425
358618,1.1611111111111112,-0.42
358619,1.163888888888889,-0.395
358620,1.1666666666666667,-0.375
358621,1.1694444444444445,-0.335
358622,1.1722222222222223,-0.305
358623,1.175,-0.285
358624,1.1777777777777778,-0.28
358625,1.1805555555555556,-0.27
358626,1.1833333333333333,-0.28
358627,1.1861111111111111,-0.25
358628,1.1888888888888889,-0.215
358629,1.1916666666666667,-0.21
358630,1.1944444444444444,-0.22
358631,1.1972222222222222,-0.21
358632,1.2,-0.2
358633,1.2027777777777777,-0.18
358634,1.2055555555555555,-0.18
358635,1.2083333333333333,-0.19
358636,1.211111111111111,-0.215
358637,1.2138888888888888,-0.235
358638,1.2166666666666666,-0.215
358639,1.2194444444444446,-0.18
358640,1.2222222222222223,-0.18
358641,1.225,-0.185
358642,1.2277777777777779,-0.22
358643,1.2305555555555556,-0.22
358644,1.2333333333333334,-0.225
358645,1.2361111111111112,-0.205
358646,1.238888888888889,-0.19
358647,1.2416666666666667,-0.195
358648,1.2444444444444445,-0.21
358649,1.2472222222222222,-0.225
358650,1.25,-0.235
358651,1.2527777777777778,-0.22
358652,1.2555555555555555,-0.205
358653,1.2583333333333333,-0.21
358654,1.261111111111111,-0.225
358655,1.2638888888888888,-0.23
358656,1.2666666666666666,-0.23
358657,1.2694444444444444,-0.22
358658,1.2722222222222221,-0.225
358659,1.275,-0.235
358660,1.2777777777777777,-0.24
358661,1.2805555555555554,-0.245
358662,1.2833333333333334,-0.235
358663,1.2861111111111112,-0.24
358664,1.288888888888889,-0.25
358665,1.2916666666666667,-0.255
358666,1.2944444444444445,-0.25
358667,1.2972222222222223,-0.25
358668,1.3,-0.235
358669,1.3027777777777778,-0.22
358670,1.3055555555555556,-0.22
358671,1.3083333333333333,-0.235
358672,1.3111111111111111,-0.26
358673,1.3138888888888889,-0.265
358674,1.3166666666666667,-0.255
358675,1.3194444444444444,-0.225
358676,1.3222222222222222,-0.225
358677,1.325,-0.255
358678,1.3277777777777777,-0.25
358679,1.3305555555555555,-0.255
358680,1.3333333333333333,-0.235
358681,1.336111111111111,-0.22
358682,1.3388888888888888,-0.2
358683,1.3416666666666666,-0.21
358684,1.3444444444444446,-0.23
358685,1.3472222222222223,-0.235
358686,1.35,-0.24
358687,1.3527777777777779,-0.225
358688,1.3555555555555556,-0.21
358689,1.3583333333333334,-0.21
358690,1.3611111111111112,-0.23
358691,1.363888888888889,-0.24
358692,1.3666666666666667,-0.235
358693,1.3694444444444445,-0.215
358694,1.3722222222222222,-0.21
358695,1.375,-0.215
358696,1.3777777777777778,-0.225
358697,1.3805555555555555,-0.24
358698,1.3833333333333333,-0.235
358699,1.386111111111111,-0.22
358700,1.3888888888888888,-0.21
358701,1.3916666666666666,-0.205
358702,1.3944444444444444,-0.21
358703,1.3972222222222221,-0.205
358704,1.4,-0.2
358705,1.4027777777777777,-0.18
358706,1.4055555555555554,-0.155
358707,1.4083333333333334,-0.165
358708,1.4111111111111112,-0.145
358709,1.413888888888889,-0.15
358710,1.4166666666666667,-0.16
358711,1.4194444444444445,-0.145
358712,1.4222222222222223,-0.145
358713,1.425,-0.15
358714,1.4277777777777778,-0.14
358715,1.4305555555555556,-0.13
358716,1.4333333333333333,-0.12
358717,1.4361111111111111,-0.095
358718,1.4388888888888889,-0.11
358719,1.4416666666666667,-0.13
358720,1.4444444444444444,-0.145
358721,1.4472222222222222,-0.16
358722,1.45,-0.17
358723,1.4527777777777777,-0.14
358724,1.4555555555555555,-0.14
358725,1.4583333333333333,-0.165
358726,1.461111111111111,-0.175
358727,1.4638888888888888,-0.19
358728,1.4666666666666666,-0.185
358729,1.4694444444444446,-0.165
358730,1.4722222222222223,-0.17
358731,1.475,-0.205
358732,1.4777777777777779,-0.24
358733,1.4805555555555556,-0.255
358734,1.4833333333333334,-0.255
358735,1.4861111111111112,-0.235
358736,1.488888888888889,-0.215
358737,1.4916666666666667,-0.21
358738,1.4944444444444445,-0.225
358739,1.4972222222222222,-0.235
358740,1.5,-0.245
358741,1.5027777777777778,-0.235
358742,1.5055555555555555,-0.23
358743,1.5083333333333333,-0.24
358744,1.511111111111111,-0.235
358745,1.5138888888888888,-0.25
358746,1.5166666666666666,-0.245
358747,1.5194444444444444,-0.235
358748,1.5222222222222221,-0.2
358749,1.525,-0.205
358750,1.5277777777777777,-0.22
358751,1.5305555555555554,-0.215
358752,1.5333333333333334,-0.215
358753,1.5361111111111112,-0.225
358754,1.538888888888889,-0.215
358755,1.5416666666666667,-0.2
358756,1.5444444444444445,-0.195
358757,1.5472222222222223,-0.205
358758,1.55,-0.2
358759,1.5527777777777778,-0.15
358760,1.5555555555555556,-0.065
358761,1.5583333333333333,0.06
358762,1.5611111111111111,0.165
358763,1.5638888888888889,0.275
358764,1.5666666666666667,0.36
358765,1.5694444444444444,0.45
358766,1.5722222222222222,0.54
358767,1.575,0.62
358768,1.5777777777777777,0.735
358769,1.5805555555555555,0.935
358770,1.5833333333333333,1.17
358771,1.586111111111111,1.42
358772,1.5888888888888888,1.66
358773,1.5916666666666666,1.85
358774,1.5944444444444446,1.97
358775,1.5972222222222223,2.005
358776,1.6,1.96
358777,1.6027777777777779,1.78
358778,1.6055555555555556,1.445
358779,1.6083333333333334,1.035
358780,1.6111111111111112,0.725
358781,1.613888888888889,0.54
358782,1.6166666666666667,0.445
358783,1.6194444444444445,0.385
358784,1.6222222222222222,0.35
358785,1.625,0.32
358786,1.6277777777777778,0.275
358787,1.6305555555555555,0.25
358788,1.6333333333333333,0.235
358789,1.636111111111111,0.205
358790,1.6388888888888888,0.155
358791,1.6416666666666666,0.08
358792,1.6444444444444444,0.02
358793,1.6472222222222221,-0.005
358794,1.65,-0.06
358795,1.6527777777777777,-0.085
358796,1.6555555555555554,-0.115
358797,1.6583333333333334,-0.16
358798,1.6611111111111112,-0.195
358799,1.663888888888889,-0.245
358800,1.6666666666666667,-0.29
358801,1.6694444444444445,-0.305
358802,1.6722222222222223,-0.31
358803,1.675,-0.33
358804,1.6777777777777778,-0.345
358805,1.6805555555555556,-0.365
358806,1.6833333333333333,-0.38
358807,1.6861111111111111,-0.39
358808,1.6888888888888889,-0.395
358809,1.6916666666666667,-0.41
358810,1.6944444444444444,-0.42
358811,1.6972222222222222,-0.42
358812,1.7,-0.42
358813,1.7027777777777777,-0.425
358814,1.7055555555555555,-0.435
358815,1.7083333333333333,-0.445
358816,1.711111111111111,-0.475
358817,1.7138888888888888,-0.48
358818,1.7166666666666666,-0.46
358819,1.7194444444444446,-0.445
358820,1.7222222222222223,-0.435
358821,1.725,-0.46
358822,1.7277777777777779,-0.465
358823,1.7305555555555556,-0.485
358824,1.7333333333333334,-0.49
358825,1.7361111111111112,-0.49
358826,1.738888888888889,-0.48
358827,1.7416666666666667,-0.505
358828,1.7444444444444445,-0.525
358829,1.7472222222222222,-0.55
358830,1.75,-0.545
358831,1.7527777777777778,-0.525
358832,1.7555555555555555,-0.52
358833,1.7583333333333333,-0.54
358834,1.761111111111111,-0.55
358835,1.7638888888888888,-0.575
358836,1.7666666666666666,-0.57
358837,1.7694444444444444,-0.565
358838,1.7722222222222221,-0.56
358839,1.775,-0.565
358840,1.7777777777777777,-0.595
358841,1.7805555555555554,-0.62
358842,1.7833333333333334,-0.635
358843,1.7861111111111112,-0.655
358844,1.788888888888889,-0.65
358845,1.7916666666666667,-0.645
358846,1.7944444444444445,-0.665
358847,1.7972222222222223,-0.67
358848,1.8,-0.685
358849,1.8027777777777778,-0.665
358850,1.8055555555555556,-0.67
358851,1.8083333333333333,-0.685
358852,1.8111111111111111,-0.715
358853,1.8138888888888889,-0.71
358854,1.8166666666666667,-0.69
358855,1.8194444444444444,-0.675
358856,1.8222222222222222,-0.67
358857,1.825,-0.685
358858,1.8277777777777777,-0.705
358859,1.8305555555555555,-0.685
358860,1.8333333333333333,-0.66
358861,1.836111111111111,-0.64
358862,1.8388888888888888,-0.62
358863,1.8416666666666666,-0.62
358864,1.8444444444444446,-0.61
358865,1.8472222222222223,-0.61
358866,1.85,-0.555
358867,1.8527777777777779,-0.52
358868,1.8555555555555556,-0.49
358869,1.8583333333333334,-0.47
358870,1.8611111111111112,-0.46
358871,1.863888888888889,-0.45
358872,1.8666666666666667,-0.45
358873,1.8694444444444445,-0.425
358874,1.8722222222222222,-0.37
358875,1.875,-0.335
358876,1.8777777777777778,-0.325
358877,1.8805555555555555,-0.315
358878,1.8833333333333333,-0.31
358879,1.886111111111111,-0.285
358880,1.8888888888888888,-0.255
358881,1.8916666666666666,-0.255
358882,1.8944444444444444,-0.25
358883,1.8972222222222221,-0.245
358884,1.9,-0.25
358885,1.9027777777777777,-0.22
358886,1.9055555555555554,-0.2
358887,1.9083333333333334,-0.185
358888,1.9111111111111112,-0.21
358889,1.913888888888889,-0.225
358890,1.9166666666666667,-0.23
358891,1.9194444444444445,-0.215
358892,1.9222222222222223,-0.2
358893,1.925,-0.21
358894,1.9277777777777778,-0.225
358895,1.9305555555555556,-0.205
358896,1.9333333333333333,-0.205
358897,1.9361111111111111,-0.205
358898,1.9388888888888889,-0.205
358899,1.9416666666666667,-0.22
358900,1.9444444444444444,-0.24
358901,1.9472222222222222,-0.23
358902,1.95,-0.225
358903,1.9527777777777777,-0.23
358904,1.9555555555555555,-0.215
358905,1.9583333333333333,-0.22
358906,1.961111111111111,-0.24
358907,1.9638888888888888,-0.26
358908,1.9666666666666666,-0.245
358909,1.9694444444444446,-0.24
358910,1.9722222222222223,-0.23
358911,1.975,-0.255
358912,1.9777777777777779,-0.275
358913,1.9805555555555556,-0.29
358914,1.9833333333333334,-0.265
358915,1.9861111111111112,-0.245
358916,1.988888888888889,-0.215
358917,1.9916666666666667,-0.245
358918,1.9944444444444445,-0.27
358919,1.9972222222222222,-0.3
358920,2.0,-0.3
358921,2.0027777777777778,-0.29
358922,2.0055555555555555,-0.305
358923,2.0083333333333333,-0.29
358924,2.011111111111111,-0.285
358925,2.013888888888889,-0.275
358926,2.0166666666666666,-0.285
358927,2.0194444444444444,-0.29
358928,2.022222222222222,-0.26
358929,2.025,-0.265
358930,2.0277777777777777,-0.28
358931,2.0305555555555554,-0.28
358932,2.033333333333333,-0.28
358933,2.036111111111111,-0.265
358934,2.0388888888888888,-0.255
358935,2.0416666666666665,-0.265
358936,2.0444444444444443,-0.28
358937,2.047222222222222,-0.295
358938,2.05,-0.295
358939,2.0527777777777776,-0.27
358940,2.0555555555555554,-0.24
358941,2.058333333333333,-0.235
358942,2.061111111111111,-0.245
358943,2.063888888888889,-0.255
358944,2.066666666666667,-0.255
358945,2.0694444444444446,-0.245
358946,2.0722222222222224,-0.235
358947,2.075,-0.23
358948,2.077777777777778,-0.245
358949,2.0805555555555557,-0.255
358950,2.0833333333333335,-0.245
358951,2.0861111111111112,-0.24
358952,2.088888888888889,-0.235
358953,2.091666666666667,-0.245
358954,2.0944444444444446,-0.25
358955,2.0972222222222223,-0.245
358956,2.1,-0.24
358957,2.102777777777778,-0.23
358958,2.1055555555555556,-0.235
358959,2.1083333333333334,-0.245
358960,2.111111111111111,-0.24
358961,2.113888888888889,-0.225
358962,2.1166666666666667,-0.215
358963,2.1194444444444445,-0.19
358964,2.1222222222222222,-0.185
358965,2.125,-0.205
358966,2.1277777777777778,-0.185
358967,2.1305555555555555,-0.2
358968,2.1333333333333333,-0.17
358969,2.136111111111111,-0.16
358970,2.138888888888889,-0.165
358971,2.1416666666666666,-0.17
358972,2.1444444444444444,-0.18
358973,2.147222222222222,-0.17
358974,2.15,-0.17
358975,2.1527777777777777,-0.15
358976,2.1555555555555554,-0.145
358977,2.158333333333333,-0.16
358978,2.161111111111111,-0.165
358979,2.1638888888888888,-0.19
358980,2.1666666666666665,-0.18
358981,2.1694444444444443,-0.17
358982,2.172222222222222,-0.16
358983,2.175,-0.155
358984,2.1777777777777776,-0.175
358985,2.1805555555555554,-0.165
358986,2.183333333333333,-0.175
358987,2.186111111111111,-0.195
358988,2.188888888888889,-0.18
358989,2.191666666666667,-0.18
358990,2.1944444444444446,-0.205
358991,2.1972222222222224,-0.205
358992,2.2,-0.225
358993,2.202777777777778,-0.21
358994,2.2055555555555557,-0.23
358995,2.2083333333333335,-0.245
358996,2.2111111111111112,-0.255
358997,2.213888888888889,-0.265
358998,2.216666666666667,-0.245
358999,2.2194444444444446,-0.235
359000,2.2222222222222223,-0.205
359001,2.225,-0.23
359002,2.227777777777778,-0.24
359003,2.2305555555555556,-0.255
359004,2.2333333333333334,-0.27
359005,2.236111111111111,-0.25
359006,2.238888888888889,-0.225
359007,2.2416666666666667,-0.23
359008,2.2444444444444445,-0.23
359009,2.2472222222222222,-0.255
359010,2.25,-0.265
359011,2.2527777777777778,-0.25
359012,2.2555555555555555,-0.215
359013,2.2583333333333333,-0.22
359014,2.261111111111111,-0.215
359015,2.263888888888889,-0.215
359016,2.2666666666666666,-0.21
359017,2.2694444444444444,-0.19
359018,2.272222222222222,-0.2
359019,2.275,-0.22
359020,2.2777777777777777,-0.23
359021,2.2805555555555554,-0.235
359022,2.283333333333333,-0.21
359023,2.286111111111111,-0.18
359024,2.2888888888888888,-0.085
359025,2.2916666666666665,0.015
359026,2.2944444444444443,0.13
359027,2.297222222222222,0.235
359028,2.3,0.37
359029,2.3027777777777776,0.505
359030,2.3055555555555554,0.65
359031,2.308333333333333,0.775
359032,2.311111111111111,0.915
359033,2.313888888888889,1.11
359034,2.316666666666667,1.28
359035,2.3194444444444446,1.47
359036,2.3222222222222224,1.63
359037,2.325,1.81
359038,2.327777777777778,1.985
359039,2.3305555555555557,2.115
359040,2.3333333333333335,2.135
359041,2.3361111111111112,2.085
359042,2.338888888888889,1.885
359043,2.341666666666667,1.52
359044,2.3444444444444446,1.065
359045,2.3472222222222223,0.69
359046,2.35,0.43
359047,2.352777777777778,0.31
359048,2.3555555555555556,0.265
359049,2.3583333333333334,0.265
359050,2.361111111111111,0.245
359051,2.363888888888889,0.215
359052,2.3666666666666667,0.18
359053,2.3694444444444445,0.16
359054,2.3722222222222222,0.15
359055,2.375,0.1
359056,2.3777777777777778,0.02
359057,2.3805555555555555,-0.05
359058,2.3833333333333333,-0.075
359059,2.386111111111111,-0.075
359060,2.388888888888889,-0.06
359061,2.3916666666666666,-0.1
359062,2.3944444444444444,-0.15
359063,2.397222222222222,-0.205
359064,2.4,-0.235
359065,2.4027777777777777,-0.26
359066,2.4055555555555554,-0.29
359067,2.408333333333333,-0.31
359068,2.411111111111111,-0.35
359069,2.4138888888888888,-0.39
359070,2.4166666666666665,-0.395
359071,2.4194444444444443,-0.405
359072,2.422222222222222,-0.405
359073,2.425,-0.415
359074,2.4277777777777776,-0.435
359075,2.4305555555555554,-0.46
359076,2.433333333333333,-0.45
359077,2.436111111111111,-0.425
359078,2.438888888888889,-0.415
359079,2.441666666666667,-0.43
359080,2.4444444444444446,-0.465
359081,2.4472222222222224,-0.475
359082,2.45,-0.475
359083,2.452777777777778,-0.45
359084,2.4555555555555557,-0.435
359085,2.4583333333333335,-0.45
359086,2.4611111111111112,-0.47
359087,2.463888888888889,-0.495
359088,2.466666666666667,-0.48
359089,2.4694444444444446,-0.46
359090,2.4722222222222223,-0.455
359091,2.475,-0.465
359092,2.477777777777778,-0.475
359093,2.4805555555555556,-0.495
359094,2.4833333333333334,-0.49
359095,2.486111111111111,-0.5
359096,2.488888888888889,-0.485
359097,2.4916666666666667,-0.5
359098,2.4944444444444445,-0.5
359099,2.4972222222222222,-0.51
359100,2.5,-0.52
359101,2.5027777777777778,-0.535
359102,2.5055555555555555,-0.52
359103,2.5083333333333333,-0.53
359104,2.511111111111111,-0.535
359105,2.513888888888889,-0.55
359106,2.5166666666666666,-0.555
359107,2.5194444444444444,-0.565
359108,2.522222222222222,-0.565
359109,2.525,-0.595
359110,2.5277777777777777,-0.615
359111,2.5305555555555554,-0.62
359112,2.533333333333333,-0.605
359113,2.536111111111111,-0.6
359114,2.5388888888888888,-0.6
359115,2.5416666666666665,-0.61
359116,2.5444444444444443,-0.62
359117,2.547222222222222,-0.63
359118,2.55,-0.64
359119,2.5527777777777776,-0.635
359120,2.5555555555555554,-0.625
359121,2.558333333333333,-0.64
359122,2.561111111111111,-0.65
359123,2.563888888888889,-0.675
359124,2.566666666666667,-0.66
359125,2.5694444444444446,-0.675
359126,2.5722222222222224,-0.65
359127,2.575,-0.655
359128,2.577777777777778,-0.655
359129,2.5805555555555557,-0.66
359130,2.5833333333333335,-0.66
359131,2.5861111111111112,-0.645
359132,2.588888888888889,-0.625
359133,2.591666666666667,-0.625
359134,2.5944444444444446,-0.63
359135,2.5972222222222223,-0.625
359136,2.6,-0.6
359137,2.602777777777778,-0.585
359138,2.6055555555555556,-0.55
359139,2.6083333333333334,-0.52
359140,2.611111111111111,-0.52
359141,2.613888888888889,-0.515
359142,2.6166666666666667,-0.475
359143,2.6194444444444445,-0.44
359144,2.6222222222222222,-0.4
359145,2.625,-0.38
359146,2.6277777777777778,-0.395
359147,2.6305555555555555,-0.37
359148,2.6333333333333333,-0.36
359149,2.636111111111111,-0.325
359150,2.638888888888889,-0.305
359151,2.6416666666666666,-0.285
359152,2.6444444444444444,-0.285
359153,2.647222222222222,-0.275
359154,2.65,-0.26
359155,2.6527777777777777,-0.235
359156,2.6555555555555554,-0.22
359157,2.658333333333333,-0.225
359158,2.661111111111111,-0.225
359159,2.6638888888888888,-0.22
359160,2.6666666666666665,-0.21
359161,2.6694444444444443,-0.21
359162,2.672222222222222,-0.185
359163,2.675,-0.2
359164,2.6777777777777776,-0.205
359165,2.6805555555555554,-0.21
359166,2.683333333333333,-0.205
359167,2.686111111111111,-0.18
359168,2.688888888888889,-0.19
359169,2.691666666666667,-0.18
359170,2.6944444444444446,-0.19
359171,2.6972222222222224,-0.22
359172,2.7,-0.205
359173,2.702777777777778,-0.205
359174,2.7055555555555557,-0.185
359175,2.7083333333333335,-0.2
359176,2.7111111111111112,-0.215
359177,2.713888888888889,-0.23
359178,2.716666666666667,-0.245
359179,2.7194444444444446,-0.205
359180,2.7222222222222223,-0.205
359181,2.725,-0.225
359182,2.727777777777778,-0.23
359183,2.7305555555555556,-0.235
359184,2.7333333333333334,-0.225
359185,2.736111111111111,-0.225
359186,2.738888888888889,-0.235
359187,2.7416666666666667,-0.235
359188,2.7444444444444445,-0.245
359189,2.7472222222222222,-0.255
359190,2.75,-0.24
359191,2.7527777777777778,-0.22
359192,2.7555555555555555,-0.215
359193,2.7583333333333333,-0.205
359194,2.761111111111111,-0.22
359195,2.763888888888889,-0.225
359196,2.7666666666666666,-0.245
359197,2.7694444444444444,-0.25
359198,2.772222222222222,-0.225
359199,2.775,-0.23
359200,2.7777777777777777,-0.23
359201,2.7805555555555554,-0.24
359202,2.783333333333333,-0.24
359203,2.786111111111111,-0.25
359204,2.7888888888888888,-0.23
359205,2.7916666666666665,-0.245
359206,2.7944444444444443,-0.25
359207,2.797222222222222,-0.25
359208,2.8,-0.235
359209,2.8027777777777776,-0.225
359210,2.8055555555555554,-0.21
359211,2.808333333333333,-0.22
359212,2.811111111111111,-0.23
359213,2.813888888888889,-0.245
359214,2.816666666666667,-0.245
359215,2.8194444444444446,-0.22
359216,2.8222222222222224,-0.205
359217,2.825,-0.215
359218,2.827777777777778,-0.225
359219,2.8305555555555557,-0.245
359220,2.8333333333333335,-0.24
359221,2.8361111111111112,-0.225
359222,2.838888888888889,-0.2
359223,2.841666666666667,-0.215
359224,2.8444444444444446,-0.215
359225,2.8472222222222223,-0.24
359226,2.85,-0.23
359227,2.852777777777778,-0.225
359228,2.8555555555555556,-0.22
359229,2.8583333333333334,-0.225
359230,2.861111111111111,-0.23
359231,2.863888888888889,-0.23
359232,2.8666666666666667,-0.225
359233,2.8694444444444445,-0.22
359234,2.8722222222222222,-0.195
359235,2.875,-0.215
359236,2.8777777777777778,-0.24
359237,2.8805555555555555,-0.245
359238,2.8833333333333333,-0.24
359239,2.886111111111111,-0.235
359240,2.888888888888889,-0.205
359241,2.8916666666666666,-0.21
359242,2.8944444444444444,-0.215
359243,2.897222222222222,-0.215
359244,2.9,-0.215
359245,2.9027777777777777,-0.195
359246,2.9055555555555554,-0.165
359247,2.908333333333333,-0.165
359248,2.911111111111111,-0.165
359249,2.9138888888888888,-0.155
359250,2.9166666666666665,-0.155
359251,2.9194444444444443,-0.135
359252,2.922222222222222,-0.135
359253,2.925,-0.16
359254,2.9277777777777776,-0.175
359255,2.9305555555555554,-0.19
359256,2.933333333333333,-0.18
359257,2.936111111111111,-0.155
359258,2.938888888888889,-0.125
359259,2.941666666666667,-0.135
359260,2.9444444444444446,-0.14
359261,2.9472222222222224,-0.155
359262,2.95,-0.155
359263,2.952777777777778,-0.14
359264,2.9555555555555557,-0.145
359265,2.9583333333333335,-0.13
359266,2.9611111111111112,-0.15
359267,2.963888888888889,-0.135
359268,2.966666666666667,-0.15
359269,2.9694444444444446,-0.15
359270,2.9722222222222223,-0.135
359271,2.975,-0.16
359272,2.977777777777778,-0.16
359273,2.9805555555555556,-0.165
359274,2.9833333333333334,-0.17
359275,2.986111111111111,-0.175
359276,2.988888888888889,-0.17
359277,2.9916666666666667,-0.18
359278,2.9944444444444445,-0.22
359279,2.9972222222222222,-0.235
359280,3.0,-0.24
359281,3.0027777777777778,-0.22
359282,3.0055555555555555,-0.205
359283,3.0083333333333333,-0.22
359284,3.011111111111111,-0.235
359285,3.013888888888889,-0.24
359286,3.0166666666666666,-0.24
359287,3.0194444444444444,-0.225
359288,3.022222222222222,-0.2
359289,3.025,-0.215
359290,3.0277777777777777,-0.23
359291,3.0305555555555554,-0.245
359292,3.033333333333333,-0.24
359293,3.036111111111111,-0.23
359294,3.0388888888888888,-0.225
359295,3.0416666666666665,-0.22
359296,3.0444444444444443,-0.245
359297,3.047222222222222,-0.24
359298,3.05,-0.24
359299,3.0527777777777776,-0.225
359300,3.0555555555555554,-0.225
359301,3.058333333333333,-0.235
359302,3.061111111111111,-0.245
359303,3.063888888888889,-0.255
359304,3.066666666666667,-0.23
359305,3.0694444444444446,-0.22
359306,3.0722222222222224,-0.205
359307,3.075,-0.21
359308,3.077777777777778,-0.24
359309,3.0805555555555557,-0.26
359310,3.0833333333333335,-0.265
359311,3.0861111111111112,-0.23
359312,3.088888888888889,-0.155
359313,3.091666666666667,-0.095
359314,3.0944444444444446,0.015
359315,3.0972222222222223,0.12
359316,3.1,0.225
359317,3.102777777777778,0.34
359318,3.1055555555555556,0.45
359319,3.1083333333333334,0.565
359320,3.111111111111111,0.69
359321,3.113888888888889,0.855
359322,3.1166666666666667,1.055
359323,3.1194444444444445,1.265
359324,3.1222222222222222,1.5
359325,3.125,1.705
359326,3.1277777777777778,1.91
359327,3.1305555555555555,2.04
359328,3.1333333333333333,2.14
359329,3.136111111111111,2.18
359330,3.138888888888889,2.21
359331,3.1416666666666666,2.155
359332,3.1444444444444444,1.985
359333,3.147222222222222,1.675
359334,3.15,1.26
359335,3.1527777777777777,0.85
359336,3.1555555555555554,0.545
359337,3.158333333333333,0.41
359338,3.161111111111111,0.315
359339,3.1638888888888888,0.26
359340,3.1666666666666665,0.24
359341,3.1694444444444443,0.225
359342,3.172222222222222,0.205
359343,3.175,0.16
359344,3.1777777777777776,0.1
359345,3.1805555555555554,0.065
359346,3.183333333333333,0.03
359347,3.186111111111111,0.0
359348,3.188888888888889,-0.02
359349,3.191666666666667,-0.06
359350,3.1944444444444446,-0.095
359351,3.1972222222222224,-0.115
359352,3.2,-0.125
359353,3.202777777777778,-0.145
359354,3.2055555555555557,-0.16
359355,3.2083333333333335,-0.215
359356,3.2111111111111112,-0.26
359357,3.213888888888889,-0.3
359358,3.216666666666667,-0.33
359359,3.2194444444444446,-0.335
359360,3.2222222222222223,-0.345
359361,3.225,-0.35
359362,3.227777777777778,-0.38
359363,3.2305555555555556,-0.41
359364,3.2333333333333334,-0.415
359365,3.236111111111111,-0.415
359366,3.238888888888889,-0.4
359367,3.2416666666666667,-0.42
359368,3.2444444444444445,-0.415
359369,3.2472222222222222,-0.43
359370,3.25,-0.435
359371,3.2527777777777778,-0.425
359372,3.2555555555555555,-0.395
359373,3.2583333333333333,-0.415
359374,3.261111111111111,-0.44
359375,3.263888888888889,-0.455
359376,3.2666666666666666,-0.45
359377,3.2694444444444444,-0.45
359378,3.272222222222222,-0.425
359379,3.275,-0.43
359380,3.2777777777777777,-0.46
359381,3.2805555555555554,-0.475
359382,3.283333333333333,-0.48
359383,3.286111111111111,-0.46
359384,3.2888888888888888,-0.45
359385,3.2916666666666665,-0.445
359386,3.2944444444444443,-0.475
359387,3.297222222222222,-0.48
359388,3.3,-0.48
359389,3.3027777777777776,-0.495
359390,3.3055555555555554,-0.485
359391,3.308333333333333,-0.48
359392,3.311111111111111,-0.51
359393,3.313888888888889,-0.505
359394,3.316666666666667,-0.495
359395,3.3194444444444446,-0.51
359396,3.3222222222222224,-0.49
359397,3.325,-0.505
359398,3.327777777777778,-0.525
359399,3.3305555555555557,-0.55
359400,3.3333333333333335,-0.54
359401,3.3361111111111112,-0.53
359402,3.338888888888889,-0.53
359403,3.341666666666667,-0.535
359404,3.3444444444444446,-0.56
359405,3.3472222222222223,-0.59
359406,3.35,-0.59
359407,3.352777777777778,-0.59
359408,3.3555555555555556,-0.57
359409,3.3583333333333334,-0.57
359410,3.361111111111111,-0.575
359411,3.363888888888889,-0.605
359412,3.3666666666666667,-0.63
359413,3.3694444444444445,-0.63
359414,3.3722222222222222,-0.6
359415,3.375,-0.61
359416,3.3777777777777778,-0.61
359417,3.3805555555555555,-0.625
359418,3.3833333333333333,-0.62
359419,3.386111111111111,-0.62
359420,3.388888888888889,-0.62
359421,3.3916666666666666,-0.615
359422,3.3944444444444444,-0.615
359423,3.397222222222222,-0.61
359424,3.4,-0.605
359425,3.4027777777777777,-0.585
359426,3.4055555555555554,-0.55
359427,3.408333333333333,-0.55
359428,3.411111111111111,-0.55
359429,3.4138888888888888,-0.56
359430,3.4166666666666665,-0.54
359431,3.4194444444444443,-0.5
359432,3.422222222222222,-0.465
359433,3.425,-0.445
359434,3.4277777777777776,-0.435
359435,3.4305555555555554,-0.43
359436,3.433333333333333,-0.415
359437,3.436111111111111,-0.375
359438,3.438888888888889,-0.33
359439,3.441666666666667,-0.3
359440,3.4444444444444446,-0.285
359441,3.4472222222222224,-0.285
359442,3.45,-0.28
359443,3.452777777777778,-0.25
359444,3.4555555555555557,-0.245
359445,3.4583333333333335,-0.24
359446,3.4611111111111112,-0.23
359447,3.463888888888889,-0.22
359448,3.466666666666667,-0.215
359449,3.4694444444444446,-0.2
359450,3.4722222222222223,-0.195
359451,3.475,-0.21
359452,3.477777777777778,-0.22
359453,3.4805555555555556,-0.23
359454,3.4833333333333334,-0.21
359455,3.486111111111111,-0.195
359456,3.488888888888889,-0.19
359457,3.4916666666666667,-0.185
359458,3.4944444444444445,-0.2
359459,3.4972222222222222,-0.22
359460,3.5,-0.225
359461,3.5027777777777778,-0.23
359462,3.5055555555555555,-0.215
359463,3.5083333333333333,-0.19
359464,3.511111111111111,-0.205
359465,3.513888888888889,-0.235
359466,3.5166666666666666,-0.225
359467,3.5194444444444444,-0.225
359468,3.522222222222222,-0.215
359469,3.525,-0.22
359470,3.5277777777777777,-0.225
359471,3.5305555555555554,-0.225
359472,3.533333333333333,-0.24
359473,3.536111111111111,-0.235
359474,3.5388888888888888,-0.23
359475,3.5416666666666665,-0.235
359476,3.5444444444444443,-0.245
359477,3.547222222222222,-0.245
359478,3.55,-0.25
359479,3.5527777777777776,-0.24
359480,3.5555555555555554,-0.23
359481,3.558333333333333,-0.24
359482,3.561111111111111,-0.26
359483,3.563888888888889,-0.275
359484,3.566666666666667,-0.26
359485,3.5694444444444446,-0.24
359486,3.5722222222222224,-0.225
359487,3.575,-0.23
359488,3.577777777777778,-0.245
359489,3.5805555555555557,-0.25
359490,3.5833333333333335,-0.27
359491,3.5861111111111112,-0.26
359492,3.588888888888889,-0.235
359493,3.591666666666667,-0.225
359494,3.5944444444444446,-0.24
359495,3.5972222222222223,-0.255
359496,3.6,-0.26
359497,3.602777777777778,-0.24
359498,3.6055555555555556,-0.23
359499,3.6083333333333334,-0.24
359500,3.611111111111111,-0.24
359501,3.613888888888889,-0.25
359502,3.6166666666666667,-0.25
359503,3.6194444444444445,-0.245
359504,3.6222222222222222,-0.23
359505,3.625,-0.24
359506,3.6277777777777778,-0.245
359507,3.6305555555555555,-0.265
359508,3.6333333333333333,-0.265
359509,3.636111111111111,-0.245
359510,3.638888888888889,-0.22
359511,3.6416666666666666,-0.23
359512,3.6444444444444444,-0.255
359513,3.647222222222222,-0.24
359514,3.65,-0.255
359515,3.6527777777777777,-0.24
359516,3.6555555555555554,-0.225
359517,3.658333333333333,-0.22
359518,3.661111111111111,-0.215
359519,3.6638888888888888,-0.225
359520,3.6666666666666665,-0.25
359521,3.6694444444444443,-0.245
359522,3.672222222222222,-0.23
359523,3.675,-0.235
359524,3.6777777777777776,-0.235
359525,3.6805555555555554,-0.235
359526,3.683333333333333,-0.23
359527,3.686111111111111,-0.22
359528,3.688888888888889,-0.2
359529,3.691666666666667,-0.2
359530,3.6944444444444446,-0.215
359531,3.6972222222222224,-0.225
359532,3.7,-0.22
359533,3.702777777777778,-0.2
359534,3.7055555555555557,-0.17
359535,3.7083333333333335,-0.165
359536,3.7111111111111112,-0.175
359537,3.713888888888889,-0.17
359538,3.716666666666667,-0.16
359539,3.7194444444444446,-0.15
359540,3.7222222222222223,-0.13
359541,3.725,-0.125
359542,3.727777777777778,-0.145
359543,3.7305555555555556,-0.155
359544,3.7333333333333334,-0.145
359545,3.736111111111111,-0.13
359546,3.738888888888889,-0.135
359547,3.7416666666666667,-0.135
359548,3.7444444444444445,-0.135
359549,3.7472222222222222,-0.14
359550,3.75,-0.13
359551,3.7527777777777778,-0.11
359552,3.7555555555555555,-0.105
359553,3.7583333333333333,-0.12
359554,3.761111111111111,-0.16
359555,3.763888888888889,-0.185
359556,3.7666666666666666,-0.17
359557,3.7694444444444444,-0.16
359558,3.772222222222222,-0.13
359559,3.775,-0.12
359560,3.7777777777777777,-0.13
359561,3.7805555555555554,-0.155
359562,3.783333333333333,-0.195
359563,3.786111111111111,-0.19
359564,3.7888888888888888,-0.195
359565,3.7916666666666665,-0.19
359566,3.7944444444444443,-0.225
359567,3.797222222222222,-0.215
359568,3.8,-0.215
359569,3.8027777777777776,-0.215
359570,3.8055555555555554,-0.225
359571,3.808333333333333,-0.235
359572,3.811111111111111,-0.255
359573,3.813888888888889,-0.255
359574,3.816666666666667,-0.255
359575,3.8194444444444446,-0.225
359576,3.8222222222222224,-0.21
359577,3.825,-0.21
359578,3.827777777777778,-0.22
359579,3.8305555555555557,-0.245
359580,3.8333333333333335,-0.265
359581,3.8361111111111112,-0.245
359582,3.838888888888889,-0.235
359583,3.841666666666667,-0.24
359584,3.8444444444444446,-0.235
359585,3.8472222222222223,-0.245
359586,3.85,-0.255
359587,3.852777777777778,-0.24
359588,3.8555555555555556,-0.235
359589,3.8583333333333334,-0.225
359590,3.861111111111111,-0.23
359591,3.863888888888889,-0.225
359592,3.8666666666666667,-0.22
359593,3.8694444444444445,-0.215
359594,3.8722222222222222,-0.21
359595,3.875,-0.215
359596,3.8777777777777778,-0.24
359597,3.8805555555555555,-0.245
359598,3.8833333333333333,-0.23
359599,3.886111111111111,-0.225
359600,3.888888888888889,-0.19
359601,3.8916666666666666,-0.18
359602,3.8944444444444444,-0.185
359603,3.897222222222222,-0.17
359604,3.9,-0.11
359605,3.9027777777777777,0.0
359606,3.9055555555555554,0.13
359607,3.908333333333333,0.23
359608,3.911111111111111,0.3
359609,3.9138888888888888,0.395
359610,3.9166666666666665,0.495
359611,3.9194444444444443,0.61
359612,3.922222222222222,0.75
359613,3.925,0.92
359614,3.9277777777777776,1.08
359615,3.9305555555555554,1.26
359616,3.933333333333333,1.43
359617,3.936111111111111,1.6
359618,3.938888888888889,1.775
359619,3.941666666666667,1.86
359620,3.9444444444444446,1.92
359621,3.9472222222222224,1.955
359622,3.95,1.97
359623,3.952777777777778,1.945
359624,3.9555555555555557,1.87
359625,3.9583333333333335,1.66
359626,3.9611111111111112,1.33
359627,3.963888888888889,1.005
359628,3.966666666666667,0.745
359629,3.9694444444444446,0.585
359630,3.9722222222222223,0.495
359631,3.975,0.415
359632,3.977777777777778,0.35
359633,3.9805555555555556,0.33
359634,3.9833333333333334,0.285
359635,3.986111111111111,0.28
359636,3.988888888888889,0.265
359637,3.9916666666666667,0.225
359638,3.9944444444444445,0.155
359639,3.9972222222222222,0.105
359640,4.0,0.05
359641,4.002777777777778,0.04
359642,4.0055555555555555,0.025
359643,4.008333333333334,0.02
359644,4.011111111111111,-0.015
359645,4.013888888888889,-0.065
359646,4.016666666666667,-0.115
359647,4.019444444444445,-0.15
359648,4.022222222222222,-0.185
359649,4.025,-0.235
359650,4.027777777777778,-0.255
359651,4.030555555555556,-0.3
359652,4.033333333333333,-0.325
359653,4.036111111111111,-0.345
359654,4.038888888888889,-0.355
359655,4.041666666666667,-0.39
359656,4.044444444444444,-0.415
359657,4.0472222222222225,-0.44
359658,4.05,-0.435
359659,4.052777777777778,-0.42
359660,4.055555555555555,-0.42
359661,4.058333333333334,-0.43
359662,4.061111111111111,-0.44
359663,4.063888888888889,-0.475
359664,4.066666666666666,-0.48
359665,4.069444444444445,-0.47
359666,4.072222222222222,-0.45
359667,4.075,-0.465
359668,4.0777777777777775,-0.475
359669,4.080555555555556,-0.485
359670,4.083333333333333,-0.495
359671,4.086111111111111,-0.49
359672,4.088888888888889,-0.485
359673,4.091666666666667,-0.475
359674,4.094444444444444,-0.51
359675,4.097222222222222,-0.51
359676,4.1,-0.51
359677,4.102777777777778,-0.5
359678,4.105555555555555,-0.48
359679,4.108333333333333,-0.495
359680,4.111111111111111,-0.52
359681,4.113888888888889,-0.545
359682,4.116666666666666,-0.54
359683,4.1194444444444445,-0.525
359684,4.122222222222222,-0.52
359685,4.125,-0.525
359686,4.127777777777778,-0.545
359687,4.1305555555555555,-0.56
359688,4.133333333333334,-0.58
359689,4.136111111111111,-0.575
359690,4.138888888888889,-0.56
359691,4.141666666666667,-0.59
359692,4.144444444444445,-0.6
359693,4.147222222222222,-0.6
359694,4.15,-0.615
359695,4.152777777777778,-0.6
359696,4.155555555555556,-0.585
359697,4.158333333333333,-0.605
359698,4.161111111111111,-0.62
359699,4.163888888888889,-0.635
359700,4.166666666666667,-0.65
359701,4.169444444444444,-0.65
359702,4.1722222222222225,-0.65
359703,4.175,-0.655
359704,4.177777777777778,-0.68
359705,4.180555555555555,-0.7
359706,4.183333333333334,-0.71
359707,4.186111111111111,-0.7
359708,4.188888888888889,-0.675
359709,4.191666666666666,-0.675
359710,4.194444444444445,-0.705
359711,4.197222222222222,-0.715
359712,4.2,-0.72
359713,4.2027777777777775,-0.695
359714,4.205555555555556,-0.685
359715,4.208333333333333,-0.695
359716,4.211111111111111,-0.68
359717,4.213888888888889,-0.71
359718,4.216666666666667,-0.725
359719,4.219444444444444,-0.72
359720,4.222222222222222,-0.68
359721,4.225,-0.66
359722,4.227777777777778,-0.645
359723,4.230555555555555,-0.645
359724,4.233333333333333,-0.635
359725,4.236111111111111,-0.61
359726,4.238888888888889,-0.595
359727,4.241666666666666,-0.575
359728,4.2444444444444445,-0.58
359729,4.247222222222222,-0.57
359730,4.25,-0.54
359731,4.252777777777778,-0.5
359732,4.2555555555555555,-0.45
359733,4.258333333333334,-0.415
359734,4.261111111111111,-0.4
359735,4.263888888888889,-0.395
359736,4.266666666666667,-0.385
359737,4.269444444444445,-0.35
359738,4.272222222222222,-0.32
359739,4.275,-0.305
359740,4.277777777777778,-0.285
359741,4.280555555555556,-0.29
359742,4.283333333333333,-0.27
359743,4.286111111111111,-0.255
359744,4.288888888888889,-0.24
359745,4.291666666666667,-0.235
359746,4.294444444444444,-0.23
359747,4.2972222222222225,-0.23
359748,4.3,-0.245
359749,4.302777777777778,-0.215
359750,4.305555555555555,-0.195
359751,4.308333333333334,-0.185
359752,4.311111111111111,-0.2
359753,4.313888888888889,-0.225
359754,4.316666666666666,-0.225
359755,4.319444444444445,-0.205
359756,4.322222222222222,-0.185
359757,4.325,-0.19
359758,4.3277777777777775,-0.185
359759,4.330555555555556,-0.195
359760,4.333333333333333,-0.21
359761,4.336111111111111,-0.215
359762,4.338888888888889,-0.21
359763,4.341666666666667,-0.225
359764,4.344444444444444,-0.23
359765,4.347222222222222,-0.235
359766,4.35,-0.235
359767,4.352777777777778,-0.215
359768,4.355555555555555,-0.2
359769,4.358333333333333,-0.19
359770,4.361111111111111,-0.19
359771,4.363888888888889,-0.205
359772,4.366666666666666,-0.22
359773,4.3694444444444445,-0.25
359774,4.372222222222222,-0.245
359775,4.375,-0.245
359776,4.377777777777778,-0.245
359777,4.3805555555555555,-0.255
359778,4.383333333333334,-0.245
359779,4.386111111111111,-0.235
359780,4.388888888888889,-0.205
359781,4.391666666666667,-0.2
359782,4.394444444444445,-0.22
359783,4.397222222222222,-0.22
359784,4.4,-0.245
359785,4.402777777777778,-0.26
359786,4.405555555555556,-0.26
359787,4.408333333333333,-0.255
359788,4.411111111111111,-0.265
359789,4.413888888888889,-0.275
359790,4.416666666666667,-0.27
359791,4.419444444444444,-0.24
359792,4.4222222222222225,-0.22
359793,4.425,-0.2
359794,4.427777777777778,-0.21
359795,4.430555555555555,-0.235
359796,4.433333333333334,-0.28
359797,4.436111111111111,-0.275
359798,4.438888888888889,-0.26
359799,4.441666666666666,-0.24
359800,4.444444444444445,-0.245
359801,4.447222222222222,-0.255
359802,4.45,-0.26
359803,4.4527777777777775,-0.255
359804,4.455555555555556,-0.24
359805,4.458333333333333,-0.23
359806,4.461111111111111,-0.235
359807,4.463888888888889,-0.23
359808,4.466666666666667,-0.23
359809,4.469444444444444,-0.2
359810,4.472222222222222,-0.195
359811,4.475,-0.195
359812,4.477777777777778,-0.205
359813,4.480555555555555,-0.21
359814,4.483333333333333,-0.22
359815,4.486111111111111,-0.225
359816,4.488888888888889,-0.225
359817,4.491666666666666,-0.235
359818,4.4944444444444445,-0.245
359819,4.497222222222222,-0.24
359820,4.5,-0.24
359821,4.502777777777778,-0.225
359822,4.5055555555555555,-0.22
359823,4.508333333333334,-0.21
359824,4.511111111111111,-0.2
359825,4.513888888888889,-0.195
359826,4.516666666666667,-0.18
359827,4.519444444444445,-0.175
359828,4.522222222222222,-0.15
359829,4.525,-0.155
359830,4.527777777777778,-0.165
359831,4.530555555555556,-0.185
359832,4.533333333333333,-0.195
359833,4.536111111111111,-0.17
359834,4.538888888888889,-0.17
359835,4.541666666666667,-0.17
359836,4.544444444444444,-0.175
359837,4.5472222222222225,-0.185
359838,4.55,-0.18
359839,4.552777777777778,-0.16
359840,4.555555555555555,-0.12
359841,4.558333333333334,-0.11
359842,4.561111111111111,-0.105
359843,4.563888888888889,-0.115
359844,4.566666666666666,-0.13
359845,4.569444444444445,-0.15
359846,4.572222222222222,-0.14
359847,4.575,-0.12
359848,4.5777777777777775,-0.11
359849,4.580555555555556,-0.125
359850,4.583333333333333,-0.15
359851,4.586111111111111,-0.17
359852,4.588888888888889,-0.185
359853,4.591666666666667,-0.19
359854,4.594444444444444,-0.19
359855,4.597222222222222,-0.2
359856,4.6,-0.215
359857,4.602777777777778,-0.21
359858,4.605555555555555,-0.185
359859,4.608333333333333,-0.185
359860,4.611111111111111,-0.21
359861,4.613888888888889,-0.21
359862,4.616666666666666,-0.205
359863,4.6194444444444445,-0.21
359864,4.622222222222222,-0.21
359865,4.625,-0.2
359866,4.627777777777778,-0.215
359867,4.6305555555555555,-0.205
359868,4.633333333333334,-0.235
359869,4.636111111111111,-0.24
359870,4.638888888888889,-0.225
359871,4.641666666666667,-0.22
359872,4.644444444444445,-0.225
359873,4.647222222222222,-0.205
359874,4.65,-0.21
359875,4.652777777777778,-0.205
359876,4.655555555555556,-0.195
359877,4.658333333333333,-0.22
359878,4.661111111111111,-0.225
359879,4.663888888888889,-0.215
359880,4.666666666666667,-0.195
359881,4.669444444444444,-0.185
359882,4.6722222222222225,-0.17
359883,4.675,-0.18
359884,4.677777777777778,-0.185
359885,4.680555555555555,-0.2
359886,4.683333333333334,-0.22
359887,4.686111111111111,-0.19
359888,4.688888888888889,-0.165
359889,4.691666666666666,-0.14
359890,4.694444444444445,-0.105
359891,4.697222222222222,-0.025
359892,4.7,0.07
359893,4.7027777777777775,0.175
359894,4.705555555555556,0.28
359895,4.708333333333333,0.345
359896,4.711111111111111,0.44
359897,4.713888888888889,0.52
359898,4.716666666666667,0.65
359899,4.719444444444444,0.82
359900,4.722222222222222,1.01
359901,4.725,1.19
359902,4.727777777777778,1.38
359903,4.730555555555555,1.545
359904,4.733333333333333,1.735
359905,4.736111111111111,1.94
359906,4.738888888888889,2.085
359907,4.741666666666666,2.18
359908,4.7444444444444445,2.17
359909,4.747222222222222,2.145
359910,4.75,2.04
359911,4.752777777777778,1.865
359912,4.7555555555555555,1.58
359913,4.758333333333334,1.24
359914,4.761111111111111,0.925
359915,4.763888888888889,0.69
359916,4.766666666666667,0.53
359917,4.769444444444445,0.42
359918,4.772222222222222,0.355
359919,4.775,0.31
359920,4.777777777777778,0.28
359921,4.780555555555556,0.255
359922,4.783333333333333,0.23
359923,4.786111111111111,0.205
359924,4.788888888888889,0.18
359925,4.791666666666667,0.125
359926,4.794444444444444,0.07
359927,4.7972222222222225,0.02
359928,4.8,0.0
359929,4.802777777777778,-0.025
359930,4.805555555555555,-0.03
359931,4.808333333333334,-0.04
359932,4.811111111111111,-0.07
359933,4.813888888888889,-0.115
359934,4.816666666666666,-0.14
359935,4.819444444444445,-0.15
359936,4.822222222222222,-0.165
359937,4.825,-0.205
359938,4.8277777777777775,-0.24
359939,4.830555555555556,-0.28
359940,4.833333333333333,-0.31
359941,4.836111111111111,-0.32
359942,4.838888888888889,-0.33
359943,4.841666666666667,-0.35
359944,4.844444444444444,-0.4
359945,4.847222222222222,-0.39
359946,4.85,-0.4
359947,4.852777777777778,-0.385
359948,4.855555555555555,-0.37
359949,4.858333333333333,-0.375
359950,4.861111111111111,-0.4
359951,4.863888888888889,-0.42
359952,4.866666666666666,-0.42
359953,4.8694444444444445,-0.42
359954,4.872222222222222,-0.41
359955,4.875,-0.415
359956,4.877777777777778,-0.425
359957,4.8805555555555555,-0.43
359958,4.883333333333334,-0.43
359959,4.886111111111111,-0.415
359960,4.888888888888889,-0.425
359961,4.891666666666667,-0.43
359962,4.894444444444445,-0.445
359963,4.897222222222222,-0.47
359964,4.9,-0.46
359965,4.902777777777778,-0.46
359966,4.905555555555556,-0.44
359967,4.908333333333333,-0.435
359968,4.911111111111111,-0.455
359969,4.913888888888889,-0.49
359970,4.916666666666667,-0.495
359971,4.919444444444444,-0.47
359972,4.9222222222222225,-0.465
359973,4.925,-0.465
359974,4.927777777777778,-0.485
359975,4.930555555555555,-0.495
359976,4.933333333333334,-0.51
359977,4.936111111111111,-0.505
359978,4.938888888888889,-0.505
359979,4.941666666666666,-0.5
359980,4.944444444444445,-0.51
359981,4.947222222222222,-0.535
359982,4.95,-0.545
359983,4.9527777777777775,-0.55
359984,4.955555555555556,-0.545
359985,4.958333333333333,-0.555
359986,4.961111111111111,-0.575
359987,4.963888888888889,-0.6
359988,4.966666666666667,-0.6
359989,4.969444444444444,-0.605
359990,4.972222222222222,-0.59
359991,4.975,-0.6
359992,4.977777777777778,-0.62
359993,4.980555555555555,-0.65
359994,4.983333333333333,-0.64
359995,4.986111111111111,-0.635
359996,4.988888888888889,-0.625
359997,4.991666666666666,-0.625
359998,4.9944444444444445,-0.66
359999,4.997222222222222,-0.67
360000,5.0,-0.67
360001,5.002777777777778,-0.65
360002,5.0055555555555555,-0.63
360003,5.008333333333334,-0.63
360004,5.011111111111111,-0.62
360005,5.013888888888889,-0.635
360006,5.016666666666667,-0.625
360007,5.019444444444445,-0.595
360008,5.022222222222222,-0.575
360009,5.025,-0.55
360010,5.027777777777778,-0.55
360011,5.030555555555556,-0.545
360012,5.033333333333333,-0.525
360013,5.036111111111111,-0.5
360014,5.038888888888889,-0.46
360015,5.041666666666667,-0.44
360016,5.044444444444444,-0.415
360017,5.0472222222222225,-0.41
360018,5.05,-0.39
360019,5.052777777777778,-0.325
360020,5.055555555555555,-0.31
360021,5.058333333333334,-0.295
360022,5.061111111111111,-0.285
360023,5.063888888888889,-0.275
360024,5.066666666666666,-0.255
360025,5.069444444444445,-0.225
360026,5.072222222222222,-0.22
360027,5.075,-0.205
360028,5.0777777777777775,-0.2
360029,5.080555555555556,-0.22
360030,5.083333333333333,-0.205
360031,5.086111111111111,-0.19
360032,5.088888888888889,-0.17
360033,5.091666666666667,-0.17
360034,5.094444444444444,-0.175
360035,5.097222222222222,-0.195
360036,5.1,-0.2
360037,5.102777777777778,-0.19
360038,5.105555555555555,-0.18
360039,5.108333333333333,-0.175
360040,5.111111111111111,-0.18
360041,5.113888888888889,-0.18
360042,5.116666666666666,-0.2
360043,5.1194444444444445,-0.2
360044,5.122222222222222,-0.19
360045,5.125,-0.18
360046,5.127777777777778,-0.19
360047,5.1305555555555555,-0.2
360048,5.133333333333334,-0.19
360049,5.136111111111111,-0.18
360050,5.138888888888889,-0.17
360051,5.141666666666667,-0.165
360052,5.144444444444445,-0.205
360053,5.147222222222222,-0.205
360054,5.15,-0.215
360055,5.152777777777778,-0.21
360056,5.155555555555556,-0.19
360057,5.158333333333333,-0.18
360058,5.161111111111111,-0.195
360059,5.163888888888889,-0.215
360060,5.166666666666667,-0.23
360061,5.169444444444444,-0.23
360062,5.1722222222222225,-0.21
360063,5.175,-0.2
360064,5.177777777777778,-0.21
360065,5.180555555555555,-0.205
360066,5.183333333333334,-0.215
360067,5.186111111111111,-0.215
360068,5.188888888888889,-0.195
360069,5.191666666666666,-0.21
360070,5.194444444444445,-0.215
360071,5.197222222222222,-0.21
360072,5.2,-0.225
360073,5.2027777777777775,-0.205
360074,5.205555555555556,-0.185
360075,5.208333333333333,-0.2
360076,5.211111111111111,-0.215
360077,5.213888888888889,-0.22
360078,5.216666666666667,-0.215
360079,5.219444444444444,-0.2
360080,5.222222222222222,-0.18
360081,5.225,-0.18
360082,5.227777777777778,-0.195
360083,5.230555555555555,-0.21
360084,5.233333333333333,-0.215
360085,5.236111111111111,-0.19
360086,5.238888888888889,-0.18
360087,5.241666666666666,-0.18
360088,5.2444444444444445,-0.175
360089,5.247222222222222,-0.19
360090,5.25,-0.195
360091,5.252777777777778,-0.2
360092,5.2555555555555555,-0.185
360093,5.258333333333334,-0.175
360094,5.261111111111111,-0.18
360095,5.263888888888889,-0.19
360096,5.266666666666667,-0.195
360097,5.269444444444445,-0.195
360098,5.272222222222222,-0.19
360099,5.275,-0.19
360100,5.277777777777778,-0.205
360101,5.280555555555556,-0.195
360102,5.283333333333333,-0.2
360103,5.286111111111111,-0.185
360104,5.288888888888889,-0.17
360105,5.291666666666667,-0.17
360106,5.294444444444444,-0.185
360107,5.2972222222222225,-0.205
360108,5.3,-0.2
360109,5.302777777777778,-0.2
360110,5.305555555555555,-0.195
360111,5.308333333333334,-0.175
360112,5.311111111111111,-0.185
360113,5.313888888888889,-0.2
360114,5.316666666666666,-0.185
360115,5.319444444444445,-0.175
360116,5.322222222222222,-0.17
360117,5.325,-0.16
360118,5.3277777777777775,-0.155
360119,5.330555555555556,-0.165
360120,5.333333333333333,-0.145
360121,5.336111111111111,-0.13
360122,5.338888888888889,-0.105
360123,5.341666666666667,-0.105
360124,5.344444444444444,-0.115
360125,5.347222222222222,-0.13
360126,5.35,-0.135
360127,5.352777777777778,-0.125
360128,5.355555555555555,-0.11
360129,5.358333333333333,-0.08
360130,5.361111111111111,-0.095
360131,5.363888888888889,-0.13
360132,5.366666666666666,-0.125
360133,5.3694444444444445,-0.115
360134,5.372222222222222,-0.09
360135,5.375,-0.085
360136,5.377777777777778,-0.095
360137,5.3805555555555555,-0.11
360138,5.383333333333334,-0.115
360139,5.386111111111111,-0.13
360140,5.388888888888889,-0.11
360141,5.391666666666667,-0.1
360142,5.394444444444445,-0.105
360143,5.397222222222222,-0.12
360144,5.4,-0.12
360145,5.402777777777778,-0.125
360146,5.405555555555556,-0.13
360147,5.408333333333333,-0.135
360148,5.411111111111111,-0.15
360149,5.413888888888889,-0.16
360150,5.416666666666667,-0.17
360151,5.419444444444444,-0.145
360152,5.4222222222222225,-0.14
360153,5.425,-0.145
360154,5.427777777777778,-0.17
360155,5.430555555555555,-0.2
360156,5.433333333333334,-0.21
360157,5.436111111111111,-0.2
360158,5.438888888888889,-0.19
360159,5.441666666666666,-0.19
360160,5.444444444444445,-0.18
360161,5.447222222222222,-0.19
360162,5.45,-0.21
360163,5.4527777777777775,-0.195
360164,5.455555555555556,-0.195
360165,5.458333333333333,-0.2
360166,5.461111111111111,-0.21
360167,5.463888888888889,-0.205
360168,5.466666666666667,-0.2
360169,5.469444444444444,-0.19
360170,5.472222222222222,-0.18
360171,5.475,-0.18
360172,5.477777777777778,-0.2
360173,5.480555555555555,-0.215
360174,5.483333333333333,-0.21
360175,5.486111111111111,-0.19
360176,5.488888888888889,-0.18
360177,5.491666666666666,-0.165
360178,5.4944444444444445,-0.18
360179,5.497222222222222,-0.185
360180,5.5,-0.185
360181,5.502777777777778,-0.18
360182,5.5055555555555555,-0.18
360183,5.508333333333334,-0.175
360184,5.511111111111111,-0.145
360185,5.513888888888889,-0.11
360186,5.516666666666667,-0.03
360187,5.519444444444445,0.09
360188,5.522222222222222,0.195
360189,5.525,0.28
360190,5.527777777777778,0.35
360191,5.530555555555556,0.415
360192,5.533333333333333,0.495
360193,5.536111111111111,0.61
360194,5.538888888888889,0.745
360195,5.541666666666667,0.87
360196,5.544444444444444,0.995
360197,5.5472222222222225,1.105
360198,5.55,1.22
360199,5.552777777777778,1.37
360200,5.555555555555555,1.55
360201,5.558333333333334,1.745
360202,5.561111111111111,1.905
360203,5.563888888888889,2.0
360204,5.566666666666666,2.005
360205,5.569444444444445,1.96
360206,5.572222222222222,1.78
360207,5.575,1.48
360208,5.5777777777777775,1.1
360209,5.580555555555556,0.77
360210,5.583333333333333,0.575
360211,5.586111111111111,0.475
360212,5.588888888888889,0.41
360213,5.591666666666667,0.37
360214,5.594444444444444,0.335
360215,5.597222222222222,0.315
360216,5.6,0.3
360217,5.602777777777778,0.3
360218,5.605555555555555,0.285
360219,5.608333333333333,0.255
360220,5.611111111111111,0.215
360221,5.613888888888889,0.16
360222,5.616666666666666,0.105
360223,5.6194444444444445,0.06
360224,5.622222222222222,0.04
360225,5.625,0.01
360226,5.627777777777778,-0.025
360227,5.6305555555555555,-0.08
360228,5.633333333333334,-0.125
360229,5.636111111111111,-0.155
360230,5.638888888888889,-0.185
360231,5.641666666666667,-0.205
360232,5.644444444444445,-0.245
360233,5.647222222222222,-0.27
360234,5.65,-0.3
360235,5.652777777777778,-0.31
360236,5.655555555555556,-0.32
360237,5.658333333333333,-0.35
360238,5.661111111111111,-0.375
360239,5.663888888888889,-0.4
360240,5.666666666666667,-0.39
360241,5.669444444444444,-0.38
360242,5.6722222222222225,-0.38
360243,5.675,-0.355
360244,5.677777777777778,-0.38
360245,5.680555555555555,-0.39
360246,5.683333333333334,-0.405
360247,5.686111111111111,-0.4
360248,5.688888888888889,-0.39
360249,5.691666666666666,-0.385
360250,5.694444444444445,-0.4
360251,5.697222222222222,-0.41
360252,5.7,-0.43
360253,5.7027777777777775,-0.42
360254,5.705555555555556,-0.415
360255,5.708333333333333,-0.41
360256,5.711111111111111,-0.42
360257,5.713888888888889,-0.43
360258,5.716666666666667,-0.45
360259,5.719444444444444,-0.44
360260,5.722222222222222,-0.445
360261,5.725,-0.465
360262,5.727777777777778,-0.455
360263,5.730555555555555,-0.465
360264,5.733333333333333,-0.47
360265,5.736111111111111,-0.46
360266,5.738888888888889,-0.455
360267,5.741666666666666,-0.45
360268,5.7444444444444445,-0.485
360269,5.747222222222222,-0.5
360270,5.75,-0.505
360271,5.752777777777778,-0.5
360272,5.7555555555555555,-0.485
360273,5.758333333333334,-0.475
360274,5.761111111111111,-0.495
360275,5.763888888888889,-0.515
360276,5.766666666666667,-0.535
360277,5.769444444444445,-0.535
360278,5.772222222222222,-0.535
360279,5.775,-0.535
360280,5.777777777777778,-0.54
360281,5.780555555555556,-0.565
360282,5.783333333333333,-0.575
360283,5.786111111111111,-0.56
360284,5.788888888888889,-0.56
360285,5.791666666666667,-0.56
360286,5.794444444444444,-0.575
360287,5.7972222222222225,-0.595
360288,5.8,-0.59
360289,5.802777777777778,-0.585
360290,5.805555555555555,-0.585
360291,5.808333333333334,-0.59
360292,5.811111111111111,-0.595
360293,5.813888888888889,-0.615
360294,5.816666666666666,-0.615
360295,5.819444444444445,-0.58
360296,5.822222222222222,-0.565
360297,5.825,-0.565
360298,5.8277777777777775,-0.575
360299,5.830555555555556,-0.575
360300,5.833333333333333,-0.57
360301,5.836111111111111,-0.54
360302,5.838888888888889,-0.505
360303,5.841666666666667,-0.495
360304,5.844444444444444,-0.49
360305,5.847222222222222,-0.485
360306,5.85,-0.455
360307,5.852777777777778,-0.425
360308,5.855555555555555,-0.39
360309,5.858333333333333,-0.355
360310,5.861111111111111,-0.34
360311,5.863888888888889,-0.335
360312,5.866666666666666,-0.32
360313,5.8694444444444445,-0.275
360314,5.872222222222222,-0.235
360315,5.875,-0.215
360316,5.877777777777778,-0.205
360317,5.8805555555555555,-0.205
360318,5.883333333333334,-0.195
360319,5.886111111111111,-0.185
360320,5.888888888888889,-0.175
360321,5.891666666666667,-0.175
360322,5.894444444444445,-0.17
360323,5.897222222222222,-0.185
360324,5.9,-0.18
360325,5.902777777777778,-0.18
360326,5.905555555555556,-0.15
360327,5.908333333333333,-0.155
360328,5.911111111111111,-0.16
360329,5.913888888888889,-0.175
360330,5.916666666666667,-0.165
360331,5.919444444444444,-0.155
360332,5.9222222222222225,-0.14
360333,5.925,-0.155
360334,5.927777777777778,-0.17
360335,5.930555555555555,-0.18
360336,5.933333333333334,-0.185
360337,5.936111111111111,-0.145
360338,5.938888888888889,-0.135
360339,5.941666666666666,-0.135
360340,5.944444444444445,-0.165
360341,5.947222222222222,-0.18
360342,5.95,-0.185
360343,5.9527777777777775,-0.175
360344,5.955555555555556,-0.165
360345,5.958333333333333,-0.17
360346,5.961111111111111,-0.18
360347,5.963888888888889,-0.195
360348,5.966666666666667,-0.205
360349,5.969444444444444,-0.195
360350,5.972222222222222,-0.195
360351,5.975,-0.175
360352,5.977777777777778,-0.185
360353,5.980555555555555,-0.2
360354,5.983333333333333,-0.205
360355,5.986111111111111,-0.2
360356,5.988888888888889,-0.19
360357,5.991666666666666,-0.19
360358,5.9944444444444445,-0.2
360359,5.997222222222222,-0.215
360360,6.0,-0.215
360361,6.002777777777778,-0.205
360362,6.0055555555555555,-0.2
360363,6.008333333333334,-0.21
360364,6.011111111111111,-0.195
360365,6.013888888888889,-0.205
360366,6.016666666666667,-0.205
360367,6.019444444444445,-0.205
360368,6.022222222222222,-0.19
360369,6.025,-0.19
360370,6.027777777777778,-0.2
360371,6.030555555555556,-0.205
360372,6.033333333333333,-0.215
360373,6.036111111111111,-0.205
360374,6.038888888888889,-0.18
360375,6.041666666666667,-0.175
360376,6.044444444444444,-0.195
360377,6.0472222222222225,-0.21
360378,6.05,-0.22
360379,6.052777777777778,-0.205
360380,6.055555555555555,-0.17
360381,6.058333333333334,-0.165
360382,6.061111111111111,-0.185
360383,6.063888888888889,-0.19
360384,6.066666666666666,-0.21
360385,6.069444444444445,-0.2
360386,6.072222222222222,-0.19
360387,6.075,-0.205
360388,6.0777777777777775,-0.205
360389,6.080555555555556,-0.235
360390,6.083333333333333,-0.225
360391,6.086111111111111,-0.21
360392,6.088888888888889,-0.19
360393,6.091666666666667,-0.175
360394,6.094444444444444,-0.18
360395,6.097222222222222,-0.195
360396,6.1,-0.205
360397,6.102777777777778,-0.2
360398,6.105555555555555,-0.19
360399,6.108333333333333,-0.185
360400,6.111111111111111,-0.195
360401,6.113888888888889,-0.21
360402,6.116666666666666,-0.215
360403,6.1194444444444445,-0.21
360404,6.122222222222222,-0.19
360405,6.125,-0.17
360406,6.127777777777778,-0.19
360407,6.1305555555555555,-0.18
360408,6.133333333333334,-0.165
360409,6.136111111111111,-0.16
360410,6.138888888888889,-0.15
360411,6.141666666666667,-0.15
360412,6.144444444444445,-0.145
360413,6.147222222222222,-0.16
360414,6.15,-0.165
360415,6.152777777777778,-0.16
360416,6.155555555555556,-0.13
360417,6.158333333333333,-0.125
360418,6.161111111111111,-0.125
360419,6.163888888888889,-0.16
360420,6.166666666666667,-0.14
360421,6.169444444444444,-0.125
360422,6.1722222222222225,-0.11
360423,6.175,-0.1
360424,6.177777777777778,-0.115
360425,6.180555555555555,-0.13
360426,6.183333333333334,-0.15
360427,6.186111111111111,-0.125
360428,6.188888888888889,-0.12
360429,6.191666666666666,-0.12
360430,6.194444444444445,-0.14
360431,6.197222222222222,-0.165
360432,6.2,-0.19
360433,6.2027777777777775,-0.185
360434,6.205555555555556,-0.16
360435,6.208333333333333,-0.155
360436,6.211111111111111,-0.185
360437,6.213888888888889,-0.21
360438,6.216666666666667,-0.215
360439,6.219444444444444,-0.215
360440,6.222222222222222,-0.22
360441,6.225,-0.21
360442,6.227777777777778,-0.225
360443,6.230555555555555,-0.235
360444,6.233333333333333,-0.235
360445,6.236111111111111,-0.2
360446,6.238888888888889,-0.21
360447,6.241666666666666,-0.22
360448,6.2444444444444445,-0.24
360449,6.247222222222222,-0.24
360450,6.25,-0.235
360451,6.252777777777778,-0.22
360452,6.2555555555555555,-0.22
360453,6.258333333333334,-0.205
360454,6.261111111111111,-0.205
360455,6.263888888888889,-0.22
360456,6.266666666666667,-0.225
360457,6.269444444444445,-0.235
360458,6.272222222222222,-0.225
360459,6.275,-0.21
360460,6.277777777777778,-0.205
360461,6.280555555555556,-0.21
360462,6.283333333333333,-0.215
360463,6.286111111111111,-0.205
360464,6.288888888888889,-0.195
360465,6.291666666666667,-0.195
360466,6.294444444444444,-0.195
360467,6.2972222222222225,-0.165
360468,6.3,-0.105
360469,6.302777777777778,0.025
360470,6.305555555555555,0.14
360471,6.308333333333334,0.2
360472,6.311111111111111,0.235
360473,6.313888888888889,0.27
360474,6.316666666666666,0.335
360475,6.319444444444445,0.46
360476,6.322222222222222,0.62
360477,6.325,0.77
360478,6.3277777777777775,0.96
360479,6.330555555555556,1.175
360480,6.333333333333333,1.36
360481,6.336111111111111,1.575
360482,6.338888888888889,1.765
360483,6.341666666666667,1.91
360484,6.344444444444444,1.98
360485,6.347222222222222,1.98
360486,6.35,1.91
360487,6.352777777777778,1.73
360488,6.355555555555555,1.425
360489,6.358333333333333,1.06
360490,6.361111111111111,0.78
360491,6.363888888888889,0.585
360492,6.366666666666666,0.47
360493,6.3694444444444445,0.4
360494,6.372222222222222,0.37
360495,6.375,0.36
360496,6.377777777777778,0.34
360497,6.3805555555555555,0.31
360498,6.383333333333334,0.295
360499,6.386111111111111,0.245
360500,6.388888888888889,0.2
360501,6.391666666666667,0.15
360502,6.394444444444445,0.08
360503,6.397222222222222,0.01
360504,6.4,-0.02
360505,6.402777777777778,-0.04
360506,6.405555555555556,-0.04
360507,6.408333333333333,-0.07
360508,6.411111111111111,-0.115
360509,6.413888888888889,-0.175
360510,6.416666666666667,-0.215
360511,6.419444444444444,-0.245
360512,6.4222222222222225,-0.27
360513,6.425,-0.28
360514,6.427777777777778,-0.31
360515,6.430555555555555,-0.325
360516,6.433333333333334,-0.36
360517,6.436111111111111,-0.385
360518,6.438888888888889,-0.38
360519,6.441666666666666,-0.385
360520,6.444444444444445,-0.38
360521,6.447222222222222,-0.405
360522,6.45,-0.405
360523,6.4527777777777775,-0.4
360524,6.455555555555556,-0.395
360525,6.458333333333333,-0.425
360526,6.461111111111111,-0.425
360527,6.463888888888889,-0.44
360528,6.466666666666667,-0.44
360529,6.469444444444444,-0.44
360530,6.472222222222222,-0.42
360531,6.475,-0.415
360532,6.477777777777778,-0.44
360533,6.480555555555555,-0.48
360534,6.483333333333333,-0.485
360535,6.486111111111111,-0.485
360536,6.488888888888889,-0.47
360537,6.491666666666666,-0.465
360538,6.4944444444444445,-0.455
360539,6.497222222222222,-0.47
360540,6.5,-0.495
360541,6.502777777777778,-0.5
360542,6.5055555555555555,-0.495
360543,6.508333333333334,-0.485
360544,6.511111111111111,-0.5
360545,6.513888888888889,-0.51
360546,6.516666666666667,-0.505
360547,6.519444444444445,-0.51
360548,6.522222222222222,-0.505
360549,6.525,-0.525
360550,6.527777777777778,-0.55
360551,6.530555555555556,-0.565
360552,6.533333333333333,-0.59
360553,6.536111111111111,-0.585
360554,6.538888888888889,-0.58
360555,6.541666666666667,-0.585
360556,6.544444444444444,-0.595
360557,6.5472222222222225,-0.61
360558,6.55,-0.62
360559,6.552777777777778,-0.64
360560,6.555555555555555,-0.625
360561,6.558333333333334,-0.615
360562,6.561111111111111,-0.635
360563,6.563888888888889,-0.66
360564,6.566666666666666,-0.68
360565,6.569444444444445,-0.67
360566,6.572222222222222,-0.655
360567,6.575,-0.66
360568,6.5777777777777775,-0.665
360569,6.580555555555556,-0.695
360570,6.583333333333333,-0.7
360571,6.586111111111111,-0.705
360572,6.588888888888889,-0.685
360573,6.591666666666667,-0.66
360574,6.594444444444444,-0.675
360575,6.597222222222222,-0.685
360576,6.6,-0.69
360577,6.602777777777778,-0.665
360578,6.605555555555555,-0.63
360579,6.608333333333333,-0.625
360580,6.611111111111111,-0.605
360581,6.613888888888889,-0.58
360582,6.616666666666666,-0.56
360583,6.6194444444444445,-0.53
360584,6.622222222222222,-0.495
360585,6.625,-0.465
360586,6.627777777777778,-0.435
360587,6.6305555555555555,-0.415
360588,6.633333333333334,-0.405
360589,6.636111111111111,-0.365
360590,6.638888888888889,-0.335
360591,6.641666666666667,-0.305
360592,6.644444444444445,-0.305
360593,6.647222222222222,-0.3
360594,6.65,-0.29
360595,6.652777777777778,-0.28
360596,6.655555555555556,-0.24
360597,6.658333333333333,-0.22
360598,6.661111111111111,-0.22
360599,6.663888888888889,-0.245
360600,6.666666666666667,-0.225
360601,6.669444444444444,-0.205
360602,6.6722222222222225,-0.195
360603,6.675,-0.18
360604,6.677777777777778,-0.195
360605,6.680555555555555,-0.205
360606,6.683333333333334,-0.21
360607,6.686111111111111,-0.195
360608,6.688888888888889,-0.17
360609,6.691666666666666,-0.175
360610,6.694444444444445,-0.165
360611,6.697222222222222,-0.18
360612,6.7,-0.2
360613,6.7027777777777775,-0.205
360614,6.705555555555556,-0.19
360615,6.708333333333333,-0.175
360616,6.711111111111111,-0.205
360617,6.713888888888889,-0.22
360618,6.716666666666667,-0.215
360619,6.719444444444444,-0.195
360620,6.722222222222222,-0.19
360621,6.725,-0.195
360622,6.727777777777778,-0.2
360623,6.730555555555555,-0.2
360624,6.733333333333333,-0.215
360625,6.736111111111111,-0.205
360626,6.738888888888889,-0.21
360627,6.741666666666666,-0.21
360628,6.7444444444444445,-0.225
360629,6.747222222222222,-0.235
360630,6.75,-0.245
360631,6.752777777777778,-0.215
360632,6.7555555555555555,-0.215
360633,6.758333333333334,-0.2
360634,6.761111111111111,-0.215
360635,6.763888888888889,-0.22
360636,6.766666666666667,-0.22
360637,6.769444444444445,-0.225
360638,6.772222222222222,-0.205
360639,6.775,-0.22
360640,6.777777777777778,-0.22
360641,6.780555555555556,-0.255
360642,6.783333333333333,-0.255
360643,6.786111111111111,-0.25
360644,6.788888888888889,-0.22
360645,6.791666666666667,-0.2
360646,6.794444444444444,-0.21
360647,6.7972222222222225,-0.235
360648,6.8,-0.235
360649,6.802777777777778,-0.23
360650,6.805555555555555,-0.215
360651,6.808333333333334,-0.19
360652,6.811111111111111,-0.2
360653,6.813888888888889,-0.205
360654,6.816666666666666,-0.22
360655,6.819444444444445,-0.22
360656,6.822222222222222,-0.21
360657,6.825,-0.205
360658,6.8277777777777775,-0.22
360659,6.830555555555556,-0.22
360660,6.833333333333333,-0.225
360661,6.836111111111111,-0.21
360662,6.838888888888889,-0.185
360663,6.841666666666667,-0.2
360664,6.844444444444444,-0.23
360665,6.847222222222222,-0.25
360666,6.85,-0.23
360667,6.852777777777778,-0.205
360668,6.855555555555555,-0.19
360669,6.858333333333333,-0.19
360670,6.861111111111111,-0.21
360671,6.863888888888889,-0.225
360672,6.866666666666666,-0.225
360673,6.8694444444444445,-0.215
360674,6.872222222222222,-0.195
360675,6.875,-0.185
360676,6.877777777777778,-0.205
360677,6.8805555555555555,-0.21
360678,6.883333333333334,-0.23
360679,6.886111111111111,-0.22
360680,6.888888888888889,-0.2
360681,6.891666666666667,-0.175
360682,6.894444444444445,-0.18
360683,6.897222222222222,-0.185
360684,6.9,-0.185
360685,6.902777777777778,-0.18
360686,6.905555555555556,-0.16
360687,6.908333333333333,-0.14
360688,6.911111111111111,-0.15
360689,6.913888888888889,-0.145
360690,6.916666666666667,-0.145
360691,6.919444444444444,-0.15
360692,6.9222222222222225,-0.145
360693,6.925,-0.15
360694,6.927777777777778,-0.14
360695,6.930555555555555,-0.165
360696,6.933333333333334,-0.15
360697,6.936111111111111,-0.13
360698,6.938888888888889,-0.1
360699,6.941666666666666,-0.095
360700,6.944444444444445,-0.1
360701,6.947222222222222,-0.13
360702,6.95,-0.14
360703,6.9527777777777775,-0.135
360704,6.955555555555556,-0.105
360705,6.958333333333333,-0.09
360706,6.961111111111111,-0.1
360707,6.963888888888889,-0.145
360708,6.966666666666667,-0.15
360709,6.969444444444444,-0.145
360710,6.972222222222222,-0.14
360711,6.975,-0.13
360712,6.977777777777778,-0.135
360713,6.980555555555555,-0.145
360714,6.983333333333333,-0.165
360715,6.986111111111111,-0.175
360716,6.988888888888889,-0.175
360717,6.991666666666666,-0.175
360718,6.9944444444444445,-0.195
360719,6.997222222222222,-0.215
360720,7.0,-0.225
360721,7.002777777777778,-0.22
360722,7.0055555555555555,-0.195
360723,7.008333333333334,-0.195
360724,7.011111111111111,-0.2
360725,7.013888888888889,-0.215
360726,7.016666666666667,-0.215
360727,7.019444444444445,-0.2
360728,7.022222222222222,-0.19
360729,7.025,-0.19
360730,7.027777777777778,-0.195
360731,7.030555555555556,-0.2
360732,7.033333333333333,-0.21
360733,7.036111111111111,-0.19
360734,7.038888888888889,-0.165
360735,7.041666666666667,-0.155
360736,7.044444444444444,-0.175
360737,7.0472222222222225,-0.19
360738,7.05,-0.205
360739,7.052777777777778,-0.205
360740,7.055555555555555,-0.18
360741,7.058333333333334,-0.17
360742,7.061111111111111,-0.17
360743,7.063888888888889,-0.175
360744,7.066666666666666,-0.185
360745,7.069444444444445,-0.13
360746,7.072222222222222,-0.005
360747,7.075,0.125
360748,7.0777777777777775,0.255
360749,7.080555555555556,0.355
360750,7.083333333333333,0.45
360751,7.086111111111111,0.57
360752,7.088888888888889,0.69
360753,7.091666666666667,0.835
360754,7.094444444444444,0.985
360755,7.097222222222222,1.13
360756,7.1,1.3
360757,7.102777777777778,1.47
360758,7.105555555555555,1.655
360759,7.108333333333333,1.855
360760,7.111111111111111,2.045
360761,7.113888888888889,2.145
360762,7.116666666666666,2.17
360763,7.1194444444444445,2.1
360764,7.122222222222222,1.95
360765,7.125,1.66
360766,7.127777777777778,1.25
360767,7.1305555555555555,0.85
360768,7.133333333333334,0.575
360769,7.136111111111111,0.425
360770,7.138888888888889,0.395
360771,7.141666666666667,0.4
360772,7.144444444444445,0.385
360773,7.147222222222222,0.34
360774,7.15,0.29
360775,7.152777777777778,0.27
360776,7.155555555555556,0.25
360777,7.158333333333333,0.23
360778,7.161111111111111,0.18
360779,7.163888888888889,0.11
360780,7.166666666666667,0.08
360781,7.169444444444444,0.055
360782,7.1722222222222225,0.025
360783,7.175,0.0
360784,7.177777777777778,-0.055
360785,7.180555555555555,-0.1
360786,7.183333333333334,-0.145
360787,7.186111111111111,-0.18
360788,7.188888888888889,-0.2
360789,7.191666666666666,-0.23
360790,7.194444444444445,-0.265
360791,7.197222222222222,-0.31
360792,7.2,-0.335
360793,7.2027777777777775,-0.35
360794,7.205555555555556,-0.345
360795,7.208333333333333,-0.325
360796,7.211111111111111,-0.34
360797,7.213888888888889,-0.365
360798,7.216666666666667,-0.375
360799,7.219444444444444,-0.385
360800,7.222222222222222,-0.37
360801,7.225,-0.36
360802,7.227777777777778,-0.37
360803,7.230555555555555,-0.39
360804,7.233333333333333,-0.395
360805,7.236111111111111,-0.415
360806,7.238888888888889,-0.385
360807,7.241666666666666,-0.4
360808,7.2444444444444445,-0.4
360809,7.247222222222222,-0.41
360810,7.25,-0.42
360811,7.252777777777778,-0.43
360812,7.2555555555555555,-0.42
360813,7.258333333333334,-0.425
360814,7.261111111111111,-0.415
360815,7.263888888888889,-0.43
360816,7.266666666666667,-0.43
360817,7.269444444444445,-0.425
360818,7.272222222222222,-0.415
360819,7.275,-0.415
360820,7.277777777777778,-0.44
360821,7.280555555555556,-0.455
360822,7.283333333333333,-0.46
360823,7.286111111111111,-0.465
360824,7.288888888888889,-0.465
360825,7.291666666666667,-0.465
360826,7.294444444444444,-0.49
360827,7.2972222222222225,-0.51
360828,7.3,-0.525
360829,7.302777777777778,-0.525
360830,7.305555555555555,-0.5
360831,7.308333333333334,-0.505
360832,7.311111111111111,-0.53
360833,7.313888888888889,-0.56
360834,7.316666666666666,-0.565
360835,7.319444444444445,-0.57
360836,7.322222222222222,-0.565
360837,7.325,-0.565
360838,7.3277777777777775,-0.57
360839,7.330555555555556,-0.6
360840,7.333333333333333,-0.595
360841,7.336111111111111,-0.605
360842,7.338888888888889,-0.605
360843,7.341666666666667,-0.6
360844,7.344444444444444,-0.61
360845,7.347222222222222,-0.615
360846,7.35,-0.62
360847,7.352777777777778,-0.635
360848,7.355555555555555,-0.625
360849,7.358333333333333,-0.595
360850,7.361111111111111,-0.6
360851,7.363888888888889,-0.605
360852,7.366666666666666,-0.6
360853,7.3694444444444445,-0.58
360854,7.372222222222222,-0.545
360855,7.375,-0.54
360856,7.377777777777778,-0.535
360857,7.3805555555555555,-0.55
360858,7.383333333333334,-0.53
360859,7.386111111111111,-0.505
360860,7.388888888888889,-0.45
360861,7.391666666666667,-0.42
360862,7.394444444444445,-0.405
360863,7.397222222222222,-0.395
360864,7.4,-0.38
360865,7.402777777777778,-0.315
360866,7.405555555555556,-0.28
360867,7.408333333333333,-0.25
360868,7.411111111111111,-0.235
360869,7.413888888888889,-0.23
360870,7.416666666666667,-0.22
360871,7.419444444444444,-0.21
360872,7.4222222222222225,-0.17
360873,7.425,-0.15
360874,7.427777777777778,-0.15
360875,7.430555555555555,-0.15
360876,7.433333333333334,-0.155
360877,7.436111111111111,-0.15
360878,7.438888888888889,-0.135
360879,7.441666666666666,-0.135
360880,7.444444444444445,-0.135
360881,7.447222222222222,-0.145
360882,7.45,-0.15
360883,7.4527777777777775,-0.135
360884,7.455555555555556,-0.135
360885,7.458333333333333,-0.13
360886,7.461111111111111,-0.145
360887,7.463888888888889,-0.16
360888,7.466666666666667,-0.15
360889,7.469444444444444,-0.145
360890,7.472222222222222,-0.135
360891,7.475,-0.145
360892,7.477777777777778,-0.15
360893,7.480555555555555,-0.165
360894,7.483333333333333,-0.165
360895,7.486111111111111,-0.135
360896,7.488888888888889,-0.135
360897,7.491666666666666,-0.135
360898,7.4944444444444445,-0.145
360899,7.497222222222222,-0.17
360900,7.5,-0.18
360901,7.502777777777778,-0.165
360902,7.5055555555555555,-0.15
360903,7.508333333333334,-0.15
360904,7.511111111111111,-0.155
360905,7.513888888888889,-0.175
360906,7.516666666666667,-0.195
360907,7.519444444444445,-0.185
360908,7.522222222222222,-0.155
360909,7.525,-0.145
360910,7.527777777777778,-0.15
360911,7.530555555555556,-0.17
360912,7.533333333333333,-0.18
360913,7.536111111111111,-0.19
360914,7.538888888888889,-0.17
360915,7.541666666666667,-0.155
360916,7.544444444444444,-0.165
360917,7.5472222222222225,-0.18
360918,7.55,-0.18
360919,7.552777777777778,-0.155
360920,7.555555555555555,-0.15
360921,7.558333333333334,-0.14
360922,7.561111111111111,-0.155
360923,7.563888888888889,-0.15
360924,7.566666666666666,-0.175
360925,7.569444444444445,-0.155
360926,7.572222222222222,-0.14
360927,7.575,-0.14
360928,7.5777777777777775,-0.14
360929,7.580555555555556,-0.155
360930,7.583333333333333,-0.155
360931,7.586111111111111,-0.155
360932,7.588888888888889,-0.14
360933,7.591666666666667,-0.135
360934,7.594444444444444,-0.15
360935,7.597222222222222,-0.155
360936,7.6,-0.165
360937,7.602777777777778,-0.155
360938,7.605555555555555,-0.145
360939,7.608333333333333,-0.135
360940,7.611111111111111,-0.155
360941,7.613888888888889,-0.165
360942,7.616666666666666,-0.175
360943,7.6194444444444445,-0.155
360944,7.622222222222222,-0.135
360945,7.625,-0.125
360946,7.627777777777778,-0.145
360947,7.6305555555555555,-0.155
360948,7.633333333333334,-0.16
360949,7.636111111111111,-0.155
360950,7.638888888888889,-0.13
360951,7.641666666666667,-0.12
360952,7.644444444444445,-0.135
360953,7.647222222222222,-0.14
360954,7.65,-0.17
360955,7.652777777777778,-0.165
360956,7.655555555555556,-0.155
360957,7.658333333333333,-0.125
360958,7.661111111111111,-0.15
360959,7.663888888888889,-0.15
360960,7.666666666666667,-0.15
360961,7.669444444444444,-0.15
360962,7.6722222222222225,-0.12
360963,7.675,-0.095
360964,7.677777777777778,-0.08
360965,7.680555555555555,-0.095
360966,7.683333333333334,-0.1
360967,7.686111111111111,-0.095
360968,7.688888888888889,-0.085
360969,7.691666666666666,-0.07
360970,7.694444444444445,-0.07
360971,7.697222222222222,-0.085
360972,7.7,-0.085
360973,7.7027777777777775,-0.085
360974,7.705555555555556,-0.075
360975,7.708333333333333,-0.065
360976,7.711111111111111,-0.06
360977,7.713888888888889,-0.065
360978,7.716666666666667,-0.08
360979,7.719444444444444,-0.075
360980,7.722222222222222,-0.075
360981,7.725,-0.075
360982,7.727777777777778,-0.075
360983,7.730555555555555,-0.085
360984,7.733333333333333,-0.1
360985,7.736111111111111,-0.09
360986,7.738888888888889,-0.09
360987,7.741666666666666,-0.11
360988,7.7444444444444445,-0.115
360989,7.747222222222222,-0.145
360990,7.75,-0.16
360991,7.752777777777778,-0.15
360992,7.7555555555555555,-0.135
360993,7.758333333333334,-0.14
360994,7.761111111111111,-0.17
360995,7.763888888888889,-0.195
360996,7.766666666666667,-0.205
360997,7.769444444444445,-0.185
360998,7.772222222222222,-0.165
360999,7.775,-0.135
361000,7.777777777777778,-0.15
361001,7.780555555555556,-0.195
361002,7.783333333333333,-0.19
361003,7.786111111111111,-0.185
361004,7.788888888888889,-0.16
361005,7.791666666666667,-0.15
361006,7.794444444444444,-0.145
361007,7.7972222222222225,-0.17
361008,7.8,-0.185
361009,7.802777777777778,-0.18
361010,7.805555555555555,-0.16
361011,7.808333333333334,-0.14
361012,7.811111111111111,-0.145
361013,7.813888888888889,-0.155
361014,7.816666666666666,-0.155
361015,7.819444444444445,-0.16
361016,7.822222222222222,-0.145
361017,7.825,-0.14
361018,7.8277777777777775,-0.14
361019,7.830555555555556,-0.11
361020,7.833333333333333,-0.01
361021,7.836111111111111,0.115
361022,7.838888888888889,0.24
361023,7.841666666666667,0.345
361024,7.844444444444444,0.43
361025,7.847222222222222,0.51
361026,7.85,0.615
361027,7.852777777777778,0.74
361028,7.855555555555555,0.895
361029,7.858333333333333,1.045
361030,7.861111111111111,1.155
361031,7.863888888888889,1.315
361032,7.866666666666666,1.475
361033,7.8694444444444445,1.705
361034,7.872222222222222,1.925
361035,7.875,2.06
361036,7.877777777777778,2.035
361037,7.8805555555555555,1.88
361038,7.883333333333334,1.57
361039,7.886111111111111,1.19
361040,7.888888888888889,0.85
361041,7.891666666666667,0.65
361042,7.894444444444445,0.53
361043,7.897222222222222,0.465
361044,7.9,0.415
361045,7.902777777777778,0.4
361046,7.905555555555556,0.4
361047,7.908333333333333,0.39
361048,7.911111111111111,0.36
361049,7.913888888888889,0.31
361050,7.916666666666667,0.265
361051,7.919444444444444,0.215
361052,7.9222222222222225,0.18
361053,7.925,0.15
361054,7.927777777777778,0.095
361055,7.930555555555555,0.055
361056,7.933333333333334,0.015
361057,7.936111111111111,-0.04
361058,7.938888888888889,-0.085
361059,7.941666666666666,-0.12
361060,7.944444444444445,-0.16
361061,7.947222222222222,-0.21
361062,7.95,-0.255
361063,7.9527777777777775,-0.255
361064,7.955555555555556,-0.26
361065,7.958333333333333,-0.28
361066,7.961111111111111,-0.31
361067,7.963888888888889,-0.335
361068,7.966666666666667,-0.355
361069,7.969444444444444,-0.35
361070,7.972222222222222,-0.335
361071,7.975,-0.325
361072,7.977777777777778,-0.33
361073,7.980555555555555,-0.345
361074,7.983333333333333,-0.355
361075,7.986111111111111,-0.37
361076,7.988888888888889,-0.365
361077,7.991666666666666,-0.355
361078,7.9944444444444445,-0.365
361079,7.997222222222222,-0.37
361080,8.0,-0.375
361081,8.002777777777778,-0.38
361082,8.005555555555556,-0.38
361083,8.008333333333333,-0.38
361084,8.011111111111111,-0.395
361085,8.01388888888889,-0.4
361086,8.016666666666667,-0.41
361087,8.019444444444444,-0.415
361088,8.022222222222222,-0.41
361089,8.025,-0.41
361090,8.027777777777779,-0.415
361091,8.030555555555555,-0.445
361092,8.033333333333333,-0.445
361093,8.036111111111111,-0.44
361094,8.03888888888889,-0.445
361095,8.041666666666666,-0.42
361096,8.044444444444444,-0.435
361097,8.047222222222222,-0.46
361098,8.05,-0.485
361099,8.052777777777777,-0.475
361100,8.055555555555555,-0.465
361101,8.058333333333334,-0.45
361102,8.061111111111112,-0.465
361103,8.063888888888888,-0.495
361104,8.066666666666666,-0.515
361105,8.069444444444445,-0.53
361106,8.072222222222223,-0.515
361107,8.075,-0.495
361108,8.077777777777778,-0.52
361109,8.080555555555556,-0.525
361110,8.083333333333334,-0.55
361111,8.08611111111111,-0.555
361112,8.088888888888889,-0.56
361113,8.091666666666667,-0.56
361114,8.094444444444445,-0.56
361115,8.097222222222221,-0.57
361116,8.1,-0.595
361117,8.102777777777778,-0.58
361118,8.105555555555556,-0.57
361119,8.108333333333333,-0.575
361120,8.11111111111111,-0.59
361121,8.113888888888889,-0.595
361122,8.116666666666667,-0.61
361123,8.119444444444444,-0.59
361124,8.122222222222222,-0.57
361125,8.125,-0.555
361126,8.127777777777778,-0.55
361127,8.130555555555556,-0.56
361128,8.133333333333333,-0.555
361129,8.136111111111111,-0.525
361130,8.13888888888889,-0.485
361131,8.141666666666667,-0.46
361132,8.144444444444444,-0.465
361133,8.147222222222222,-0.47
361134,8.15,-0.47
361135,8.152777777777779,-0.465
361136,8.155555555555555,-0.425
361137,8.158333333333333,-0.39
361138,8.161111111111111,-0.375
361139,8.16388888888889,-0.35
361140,8.166666666666666,-0.33
361141,8.169444444444444,-0.31
361142,8.172222222222222,-0.275
361143,8.175,-0.235
361144,8.177777777777777,-0.215
361145,8.180555555555555,-0.22
361146,8.183333333333334,-0.22
361147,8.186111111111112,-0.21
361148,8.188888888888888,-0.165
361149,8.191666666666666,-0.155
361150,8.194444444444445,-0.16
361151,8.197222222222223,-0.16
361152,8.2,-0.155
361153,8.202777777777778,-0.145
361154,8.205555555555556,-0.125
361155,8.208333333333334,-0.125
361156,8.21111111111111,-0.14
361157,8.213888888888889,-0.15
361158,8.216666666666667,-0.16
361159,8.219444444444445,-0.135
361160,8.222222222222221,-0.14
361161,8.225,-0.13
361162,8.227777777777778,-0.14
361163,8.230555555555556,-0.15
361164,8.233333333333333,-0.19
361165,8.23611111111111,-0.18
361166,8.238888888888889,-0.155
361167,8.241666666666667,-0.14
361168,8.244444444444444,-0.145
361169,8.247222222222222,-0.165
361170,8.25,-0.175
361171,8.252777777777778,-0.17
361172,8.255555555555556,-0.175
361173,8.258333333333333,-0.155
361174,8.261111111111111,-0.165
361175,8.26388888888889,-0.165
361176,8.266666666666667,-0.18
361177,8.269444444444444,-0.18
361178,8.272222222222222,-0.165
361179,8.275,-0.175
361180,8.277777777777779,-0.17
361181,8.280555555555555,-0.195
361182,8.283333333333333,-0.195
361183,8.286111111111111,-0.19
361184,8.28888888888889,-0.185
361185,8.291666666666666,-0.17
361186,8.294444444444444,-0.17
361187,8.297222222222222,-0.185
361188,8.3,-0.21
361189,8.302777777777777,-0.21
361190,8.305555555555555,-0.185
361191,8.308333333333334,-0.19
361192,8.311111111111112,-0.185
361193,8.313888888888888,-0.21
361194,8.316666666666666,-0.215
361195,8.319444444444445,-0.195
361196,8.322222222222223,-0.185
361197,8.325,-0.17
361198,8.327777777777778,-0.185
361199,8.330555555555556,-0.2
361200,8.333333333333334,-0.22
361201,8.33611111111111,-0.225
361202,8.338888888888889,-0.215
361203,8.341666666666667,-0.19
361204,8.344444444444445,-0.2
361205,8.347222222222221,-0.21
361206,8.35,-0.21
361207,8.352777777777778,-0.205
361208,8.355555555555556,-0.185
361209,8.358333333333333,-0.185
361210,8.36111111111111,-0.19
361211,8.363888888888889,-0.185
361212,8.366666666666667,-0.205
361213,8.369444444444444,-0.195
361214,8.372222222222222,-0.2
361215,8.375,-0.18
361216,8.377777777777778,-0.185
361217,8.380555555555556,-0.195
361218,8.383333333333333,-0.21
361219,8.386111111111111,-0.185
361220,8.38888888888889,-0.185
361221,8.391666666666667,-0.17
361222,8.394444444444444,-0.185
361223,8.397222222222222,-0.205
361224,8.4,-0.195
361225,8.402777777777779,-0.195
361226,8.405555555555555,-0.185
361227,8.408333333333333,-0.18
361228,8.411111111111111,-0.18
361229,8.41388888888889,-0.195
361230,8.416666666666666,-0.215
361231,8.419444444444444,-0.21
361232,8.422222222222222,-0.2
361233,8.425,-0.18
361234,8.427777777777777,-0.19
361235,8.430555555555555,-0.185
361236,8.433333333333334,-0.2
361237,8.436111111111112,-0.2
361238,8.438888888888888,-0.19
361239,8.441666666666666,-0.17
361240,8.444444444444445,-0.165
361241,8.447222222222223,-0.18
361242,8.45,-0.195
361243,8.452777777777778,-0.185
361244,8.455555555555556,-0.175
361245,8.458333333333334,-0.145
361246,8.46111111111111,-0.13
361247,8.463888888888889,-0.13
361248,8.466666666666667,-0.155
361249,8.469444444444445,-0.14
361250,8.472222222222221,-0.145
361251,8.475,-0.14
361252,8.477777777777778,-0.135
361253,8.480555555555556,-0.145
361254,8.483333333333333,-0.14
361255,8.48611111111111,-0.12
361256,8.488888888888889,-0.125
361257,8.491666666666667,-0.115
361258,8.494444444444444,-0.11
361259,8.497222222222222,-0.125
361260,8.5,-0.14
361261,8.502777777777778,-0.125
361262,8.505555555555556,-0.115
361263,8.508333333333333,-0.105
361264,8.511111111111111,-0.115
361265,8.51388888888889,-0.125
361266,8.516666666666667,-0.135
361267,8.519444444444444,-0.13
361268,8.522222222222222,-0.125
361269,8.525,-0.145
361270,8.527777777777779,-0.16
361271,8.530555555555555,-0.18
361272,8.533333333333333,-0.185
361273,8.536111111111111,-0.18
361274,8.53888888888889,-0.17
361275,8.541666666666666,-0.165
361276,8.544444444444444,-0.195
361277,8.547222222222222,-0.205
361278,8.55,-0.22
361279,8.552777777777777,-0.225
361280,8.555555555555555,-0.21
361281,8.558333333333334,-0.175
361282,8.561111111111112,-0.195
361283,8.563888888888888,-0.205
361284,8.566666666666666,-0.22
361285,8.569444444444445,-0.21
361286,8.572222222222223,-0.2
361287,8.575,-0.195
361288,8.577777777777778,-0.2
361289,8.580555555555556,-0.21
361290,8.583333333333334,-0.215
361291,8.58611111111111,-0.21
361292,8.588888888888889,-0.19
361293,8.591666666666667,-0.17
361294,8.594444444444445,-0.18
361295,8.597222222222221,-0.18
361296,8.6,-0.19
361297,8.602777777777778,-0.185
361298,8.605555555555556,-0.16
361299,8.608333333333333,-0.17
361300,8.61111111111111,-0.19
361301,8.613888888888889,-0.165
361302,8.616666666666667,-0.12
361303,8.619444444444444,0.015
361304,8.622222222222222,0.175
361305,8.625,0.31
361306,8.627777777777778,0.415
361307,8.630555555555556,0.515
361308,8.633333333333333,0.635
361309,8.636111111111111,0.785
361310,8.63888888888889,0.975
361311,8.641666666666667,1.165
361312,8.644444444444444,1.33
361313,8.647222222222222,1.465
361314,8.65,1.615
361315,8.652777777777779,1.815
361316,8.655555555555555,1.97
361317,8.658333333333333,2.03
361318,8.661111111111111,1.955
361319,8.66388888888889,1.765
361320,8.666666666666666,1.45
361321,8.669444444444444,1.08
361322,8.672222222222222,0.76
361323,8.675,0.55
361324,8.677777777777777,0.455
361325,8.680555555555555,0.41
361326,8.683333333333334,0.385
361327,8.686111111111112,0.355
361328,8.688888888888888,0.35
361329,8.691666666666666,0.325
361330,8.694444444444445,0.285
361331,8.697222222222223,0.25
361332,8.7,0.18
361333,8.702777777777778,0.13
361334,8.705555555555556,0.09
361335,8.708333333333334,0.055
361336,8.71111111111111,0.01
361337,8.713888888888889,-0.035
361338,8.716666666666667,-0.07
361339,8.719444444444445,-0.11
361340,8.722222222222221,-0.145
361341,8.725,-0.18
361342,8.727777777777778,-0.23
361343,8.730555555555556,-0.27
361344,8.733333333333333,-0.31
361345,8.73611111111111,-0.33
361346,8.738888888888889,-0.355
361347,8.741666666666667,-0.355
361348,8.744444444444444,-0.38
361349,8.747222222222222,-0.405
361350,8.75,-0.41
361351,8.752777777777778,-0.415
361352,8.755555555555556,-0.42
361353,8.758333333333333,-0.395
361354,8.761111111111111,-0.395
361355,8.76388888888889,-0.405
361356,8.766666666666667,-0.425
361357,8.769444444444444,-0.43
361358,8.772222222222222,-0.42
361359,8.775,-0.41
361360,8.777777777777779,-0.42
361361,8.780555555555555,-0.425
361362,8.783333333333333,-0.44
361363,8.786111111111111,-0.455
361364,8.78888888888889,-0.44
361365,8.791666666666666,-0.445
361366,8.794444444444444,-0.45
361367,8.797222222222222,-0.465
361368,8.8,-0.47
361369,8.802777777777777,-0.475
361370,8.805555555555555,-0.465
361371,8.808333333333334,-0.475
361372,8.811111111111112,-0.49
361373,8.813888888888888,-0.5
361374,8.816666666666666,-0.505
361375,8.819444444444445,-0.505
361376,8.822222222222223,-0.5
361377,8.825,-0.5
361378,8.827777777777778,-0.53
361379,8.830555555555556,-0.545
361380,8.833333333333334,-0.555
361381,8.83611111111111,-0.565
361382,8.838888888888889,-0.555
361383,8.841666666666667,-0.56
361384,8.844444444444445,-0.565
361385,8.847222222222221,-0.59
361386,8.85,-0.615
361387,8.852777777777778,-0.615
361388,8.855555555555556,-0.61
361389,8.858333333333333,-0.61
361390,8.86111111111111,-0.615
361391,8.863888888888889,-0.65
361392,8.866666666666667,-0.66
361393,8.869444444444444,-0.66
361394,8.872222222222222,-0.68
361395,8.875,-0.655
361396,8.877777777777778,-0.66
361397,8.880555555555556,-0.675
361398,8.883333333333333,-0.695
361399,8.886111111111111,-0.7
361400,8.88888888888889,-0.695
361401,8.891666666666667,-0.685
361402,8.894444444444444,-0.685
361403,8.897222222222222,-0.705
361404,8.9,-0.7
361405,8.902777777777779,-0.695
361406,8.905555555555555,-0.67
361407,8.908333333333333,-0.645
361408,8.911111111111111,-0.64
361409,8.91388888888889,-0.64
361410,8.916666666666666,-0.63
361411,8.919444444444444,-0.62
361412,8.922222222222222,-0.575
361413,8.925,-0.545
361414,8.927777777777777,-0.53
361415,8.930555555555555,-0.52
361416,8.933333333333334,-0.515
361417,8.936111111111112,-0.485
361418,8.938888888888888,-0.465
361419,8.941666666666666,-0.405
361420,8.944444444444445,-0.37
361421,8.947222222222223,-0.375
361422,8.95,-0.35
361423,8.952777777777778,-0.345
361424,8.955555555555556,-0.295
361425,8.958333333333334,-0.255
361426,8.96111111111111,-0.245
361427,8.963888888888889,-0.235
361428,8.966666666666667,-0.23
361429,8.969444444444445,-0.225
361430,8.972222222222221,-0.205
361431,8.975,-0.19
361432,8.977777777777778,-0.18
361433,8.980555555555556,-0.19
361434,8.983333333333333,-0.195
361435,8.98611111111111,-0.19
361436,8.988888888888889,-0.195
361437,8.991666666666667,-0.155
361438,8.994444444444444,-0.155
361439,8.997222222222222,-0.175
361440,9.0,-0.195
361441,9.002777777777778,-0.185
361442,9.005555555555556,-0.165
361443,9.008333333333333,-0.14
361444,9.011111111111111,-0.145
361445,9.01388888888889,-0.17
361446,9.016666666666667,-0.185
361447,9.019444444444444,-0.195
361448,9.022222222222222,-0.17
361449,9.025,-0.165
361450,9.027777777777779,-0.165
361451,9.030555555555555,-0.175
361452,9.033333333333333,-0.175
361453,9.036111111111111,-0.185
361454,9.03888888888889,-0.19
361455,9.041666666666666,-0.165
361456,9.044444444444444,-0.17
361457,9.047222222222222,-0.18
361458,9.05,-0.185
361459,9.052777777777777,-0.185
361460,9.055555555555555,-0.16
361461,9.058333333333334,-0.165
361462,9.061111111111112,-0.175
361463,9.063888888888888,-0.2
361464,9.066666666666666,-0.205
361465,9.069444444444445,-0.195
361466,9.072222222222223,-0.18
361467,9.075,-0.16
361468,9.077777777777778,-0.17
361469,9.080555555555556,-0.185
361470,9.083333333333334,-0.21
361471,9.08611111111111,-0.205
361472,9.088888888888889,-0.19
361473,9.091666666666667,-0.17
361474,9.094444444444445,-0.17
361475,9.097222222222221,-0.185
361476,9.1,-0.215
361477,9.102777777777778,-0.195
361478,9.105555555555556,-0.195
361479,9.108333333333333,-0.185
361480,9.11111111111111,-0.18
361481,9.113888888888889,-0.2
361482,9.116666666666667,-0.205
361483,9.119444444444444,-0.205
361484,9.122222222222222,-0.19
361485,9.125,-0.17
361486,9.127777777777778,-0.19
361487,9.130555555555556,-0.205
361488,9.133333333333333,-0.195
361489,9.136111111111111,-0.2
361490,9.13888888888889,-0.18
361491,9.141666666666667,-0.17
361492,9.144444444444444,-0.19
361493,9.147222222222222,-0.195
361494,9.15,-0.2
361495,9.152777777777779,-0.195
361496,9.155555555555555,-0.175
361497,9.158333333333333,-0.165
361498,9.161111111111111,-0.17
361499,9.16388888888889,-0.195
361500,9.166666666666666,-0.175
361501,9.169444444444444,-0.19
361502,9.172222222222222,-0.175
361503,9.175,-0.165
361504,9.177777777777777,-0.175
361505,9.180555555555555,-0.185
361506,9.183333333333334,-0.19
361507,9.186111111111112,-0.185
361508,9.188888888888888,-0.18
361509,9.191666666666666,-0.17
361510,9.194444444444445,-0.165
361511,9.197222222222223,-0.185
361512,9.2,-0.2
361513,9.202777777777778,-0.18
361514,9.205555555555556,-0.175
361515,9.208333333333334,-0.155
361516,9.21111111111111,-0.165
361517,9.213888888888889,-0.185
361518,9.216666666666667,-0.19
361519,9.219444444444445,-0.19
361520,9.222222222222221,-0.17
361521,9.225,-0.15
361522,9.227777777777778,-0.16
361523,9.230555555555556,-0.17
361524,9.233333333333333,-0.19
361525,9.23611111111111,-0.19
361526,9.238888888888889,-0.18
361527,9.241666666666667,-0.165
361528,9.244444444444444,-0.155
361529,9.247222222222222,-0.17
361530,9.25,-0.17
361531,9.252777777777778,-0.175
361532,9.255555555555556,-0.15
361533,9.258333333333333,-0.145
361534,9.261111111111111,-0.125
361535,9.26388888888889,-0.125
361536,9.266666666666667,-0.13
361537,9.269444444444444,-0.115
361538,9.272222222222222,-0.115
361539,9.275,-0.1
361540,9.277777777777779,-0.105
361541,9.280555555555555,-0.105
361542,9.283333333333333,-0.125
361543,9.286111111111111,-0.12
361544,9.28888888888889,-0.105
361545,9.291666666666666,-0.095
361546,9.294444444444444,-0.08
361547,9.297222222222222,-0.105
361548,9.3,-0.125
361549,9.302777777777777,-0.115
361550,9.305555555555555,-0.09
361551,9.308333333333334,-0.08
361552,9.311111111111112,-0.08
361553,9.313888888888888,-0.09
361554,9.316666666666666,-0.1
361555,9.319444444444445,-0.1
361556,9.322222222222223,-0.095
361557,9.325,-0.09
361558,9.327777777777778,-0.105
361559,9.330555555555556,-0.115
361560,9.333333333333334,-0.135
361561,9.33611111111111,-0.14
361562,9.338888888888889,-0.14
361563,9.341666666666667,-0.125
361564,9.344444444444445,-0.14
361565,9.347222222222221,-0.16
361566,9.35,-0.175
361567,9.352777777777778,-0.19
361568,9.355555555555556,-0.17
361569,9.358333333333333,-0.165
361570,9.36111111111111,-0.17
361571,9.363888888888889,-0.185
361572,9.366666666666667,-0.2
361573,9.369444444444444,-0.2
361574,9.372222222222222,-0.185
361575,9.375,-0.165
361576,9.377777777777778,-0.165
361577,9.380555555555556,-0.18
361578,9.383333333333333,-0.195
361579,9.386111111111111,-0.19
361580,9.38888888888889,-0.175
361581,9.391666666666667,-0.17
361582,9.394444444444444,-0.165
361583,9.397222222222222,-0.18
361584,9.4,-0.195
361585,9.402777777777779,-0.19
361586,9.405555555555555,-0.165
361587,9.408333333333333,-0.15
361588,9.411111111111111,-0.165
361589,9.41388888888889,-0.18
361590,9.416666666666666,-0.195
361591,9.419444444444444,-0.19
361592,9.422222222222222,-0.16
361593,9.425,-0.16
361594,9.427777777777777,-0.14
361595,9.430555555555555,-0.155
361596,9.433333333333334,-0.17
361597,9.436111111111112,-0.18
361598,9.438888888888888,-0.18
361599,9.441666666666666,-0.125
361600,9.444444444444445,-0.05
361601,9.447222222222223,0.04
361602,9.45,0.13
361603,9.452777777777778,0.22
361604,9.455555555555556,0.305
361605,9.458333333333334,0.36
361606,9.46111111111111,0.405
361607,9.463888888888889,0.48
361608,9.466666666666667,0.55
361609,9.469444444444445,0.695
361610,9.472222222222221,0.855
361611,9.475,1.05
361612,9.477777777777778,1.235
361613,9.480555555555556,1.415
361614,9.483333333333333,1.605
361615,9.48611111111111,1.79
361616,9.488888888888889,1.97
361617,9.491666666666667,2.07
361618,9.494444444444444,2.075
361619,9.497222222222222,2.02
361620,9.5,1.84
361621,9.502777777777778,1.58
361622,9.505555555555556,1.24
361623,9.508333333333333,0.91
361624,9.511111111111111,0.665
361625,9.51388888888889,0.5
361626,9.516666666666667,0.41
361627,9.519444444444444,0.36
361628,9.522222222222222,0.355
361629,9.525,0.375
361630,9.527777777777779,0.37
361631,9.530555555555555,0.34
361632,9.533333333333333,0.33
361633,9.536111111111111,0.305
361634,9.53888888888889,0.27
361635,9.541666666666666,0.245
361636,9.544444444444444,0.19
361637,9.547222222222222,0.145
361638,9.55,0.085
361639,9.552777777777777,0.055
361640,9.555555555555555,0.035
361641,9.558333333333334,0.02
361642,9.561111111111112,-0.02
361643,9.563888888888888,-0.065
361644,9.566666666666666,-0.115
361645,9.569444444444445,-0.14
361646,9.572222222222223,-0.17
361647,9.575,-0.19
361648,9.577777777777778,-0.225
361649,9.580555555555556,-0.255
361650,9.583333333333334,-0.28
361651,9.58611111111111,-0.295
361652,9.588888888888889,-0.31
361653,9.591666666666667,-0.305
361654,9.594444444444445,-0.335
361655,9.597222222222221,-0.355
361656,9.6,-0.385
361657,9.602777777777778,-0.395
361658,9.605555555555556,-0.375
361659,9.608333333333333,-0.365
361660,9.61111111111111,-0.38
361661,9.613888888888889,-0.385
361662,9.616666666666667,-0.41
361663,9.619444444444444,-0.4
361664,9.622222222222222,-0.395
361665,9.625,-0.395
361666,9.627777777777778,-0.395
361667,9.630555555555556,-0.42
361668,9.633333333333333,-0.43
361669,9.636111111111111,-0.42
361670,9.63888888888889,-0.405
361671,9.641666666666667,-0.41
361672,9.644444444444444,-0.41
361673,9.647222222222222,-0.44
361674,9.65,-0.445
361675,9.652777777777779,-0.43
361676,9.655555555555555,-0.425
361677,9.658333333333333,-0.41
361678,9.661111111111111,-0.415
361679,9.66388888888889,-0.445
361680,9.666666666666666,-0.465
361681,9.669444444444444,-0.465
361682,9.672222222222222,-0.45
361683,9.675,-0.44
361684,9.677777777777777,-0.455
361685,9.680555555555555,-0.47
361686,9.683333333333334,-0.48
361687,9.686111111111112,-0.485
361688,9.688888888888888,-0.49
361689,9.691666666666666,-0.48
361690,9.694444444444445,-0.49
361691,9.697222222222223,-0.51
361692,9.7,-0.52
361693,9.702777777777778,-0.52
361694,9.705555555555556,-0.495
361695,9.708333333333334,-0.5
361696,9.71111111111111,-0.5
361697,9.713888888888889,-0.53
361698,9.716666666666667,-0.555
361699,9.719444444444445,-0.565
361700,9.722222222222221,-0.545
361701,9.725,-0.545
361702,9.727777777777778,-0.565
361703,9.730555555555556,-0.57
361704,9.733333333333333,-0.6
361705,9.73611111111111,-0.61
361706,9.738888888888889,-0.605
361707,9.741666666666667,-0.615
361708,9.744444444444444,-0.595
361709,9.747222222222222,-0.61
361710,9.75,-0.625
361711,9.752777777777778,-0.63
361712,9.755555555555556,-0.635
361713,9.758333333333333,-0.625
361714,9.761111111111111,-0.63
361715,9.76388888888889,-0.645
361716,9.766666666666667,-0.67
361717,9.769444444444444,-0.655
361718,9.772222222222222,-0.64
361719,9.775,-0.615
361720,9.777777777777779,-0.615
361721,9.780555555555555,-0.615
361722,9.783333333333333,-0.62
361723,9.786111111111111,-0.61
361724,9.78888888888889,-0.58
361725,9.791666666666666,-0.555
361726,9.794444444444444,-0.53
361727,9.797222222222222,-0.525
361728,9.8,-0.515
361729,9.802777777777777,-0.5
361730,9.805555555555555,-0.47
361731,9.808333333333334,-0.435
361732,9.811111111111112,-0.42
361733,9.813888888888888,-0.4
361734,9.816666666666666,-0.38
361735,9.819444444444445,-0.355
361736,9.822222222222223,-0.32
361737,9.825,-0.29
361738,9.827777777777778,-0.28
361739,9.830555555555556,-0.29
361740,9.833333333333334,-0.28
361741,9.83611111111111,-0.27
361742,9.838888888888889,-0.25
361743,9.841666666666667,-0.215
361744,9.844444444444445,-0.19
361745,9.847222222222221,-0.2
361746,9.85,-0.195
361747,9.852777777777778,-0.195
361748,9.855555555555556,-0.17
361749,9.858333333333333,-0.17
361750,9.86111111111111,-0.17
361751,9.863888888888889,-0.175
361752,9.866666666666667,-0.155
361753,9.869444444444444,-0.15
361754,9.872222222222222,-0.155
361755,9.875,-0.125
361756,9.877777777777778,-0.135
361757,9.880555555555556,-0.15
361758,9.883333333333333,-0.17
361759,9.886111111111111,-0.165
361760,9.88888888888889,-0.15
361761,9.891666666666667,-0.115
361762,9.894444444444444,-0.11
361763,9.897222222222222,-0.115
361764,9.9,-0.13
361765,9.902777777777779,-0.13
361766,9.905555555555555,-0.125
361767,9.908333333333333,-0.12
361768,9.911111111111111,-0.125
361769,9.91388888888889,-0.135
361770,9.916666666666666,-0.13
361771,9.919444444444444,-0.095
361772,9.922222222222222,-0.035
361773,9.925,0.02
361774,9.927777777777777,0.09
361775,9.930555555555555,0.15
361776,9.933333333333334,0.23
361777,9.936111111111112,0.355
361778,9.938888888888888,0.485
361779,9.941666666666666,0.635
361780,9.944444444444445,0.735
361781,9.947222222222223,0.835
361782,9.95,0.95
361783,9.952777777777778,1.075
361784,9.955555555555556,1.185
361785,9.958333333333334,1.285
361786,9.96111111111111,1.355
361787,9.963888888888889,1.405
361788,9.966666666666667,1.425
361789,9.969444444444445,1.45
361790,9.972222222222221,1.475
361791,9.975,1.49
361792,9.977777777777778,1.48
361793,9.980555555555556,1.425
361794,9.983333333333333,1.23
361795,9.98611111111111,0.945
361796,9.988888888888889,0.625
361797,9.991666666666667,0.33
361798,9.994444444444444,0.04
361799,9.997222222222222,-0.26
