source_sample,relative_time_s,raw_MLII
498600,0.0,-2.035
498601,0.002777777777777778,-2.04
498602,0.005555555555555556,-2.06
498603,0.008333333333333333,-2.085
498604,0.011111111111111112,-2.085
498605,0.013888888888888888,-2.1
498606,0.016666666666666666,-2.085
498607,0.019444444444444445,-2.11
498608,0.022222222222222223,-2.105
498609,0.025,-2.085
498610,0.027777777777777776,-2.07
498611,0.030555555555555555,-2.08
498612,0.03333333333333333,-2.1
498613,0.03611111111111111,-2.12
498614,0.03888888888888889,-2.145
498615,0.041666666666666664,-2.19
498616,0.044444444444444446,-2.2
498617,0.04722222222222222,-2.24
498618,0.05,-2.255
498619,0.05277777777777778,-2.26
498620,0.05555555555555555,-2.265
498621,0.058333333333333334,-2.275
498622,0.06111111111111111,-2.275
498623,0.06388888888888888,-2.325
498624,0.06666666666666667,-2.34
498625,0.06944444444444445,-2.35
498626,0.07222222222222222,-2.355
498627,0.075,-2.385
498628,0.07777777777777778,-2.405
498629,0.08055555555555556,-2.41
498630,0.08333333333333333,-2.42
498631,0.08611111111111111,-2.43
498632,0.08888888888888889,-2.425
498633,0.09166666666666666,-2.415
498634,0.09444444444444444,-2.42
498635,0.09722222222222222,-2.415
498636,0.1,-2.41
498637,0.10277777777777777,-2.43
498638,0.10555555555555556,-2.43
498639,0.10833333333333334,-2.45
498640,0.1111111111111111,-2.46
498641,0.11388888888888889,-2.465
498642,0.11666666666666667,-2.46
498643,0.11944444444444445,-2.45
498644,0.12222222222222222,-2.435
498645,0.125,-2.43
498646,0.12777777777777777,-2.415
498647,0.13055555555555556,-2.425
498648,0.13333333333333333,-2.425
498649,0.1361111111111111,-2.455
498650,0.1388888888888889,-2.455
498651,0.14166666666666666,-2.47
498652,0.14444444444444443,-2.485
498653,0.14722222222222223,-2.485
498654,0.15,-2.495
498655,0.1527777777777778,-2.485
498656,0.15555555555555556,-2.485
498657,0.15833333333333333,-2.465
498658,0.16111111111111112,-2.47
498659,0.1638888888888889,-2.47
498660,0.16666666666666666,-2.48
498661,0.16944444444444445,-2.49
498662,0.17222222222222222,-2.495
498663,0.175,-2.5
498664,0.17777777777777778,-2.505
498665,0.18055555555555555,-2.515
498666,0.18333333333333332,-2.505
498667,0.18611111111111112,-2.505
498668,0.18888888888888888,-2.505
498669,0.19166666666666668,-2.515
498670,0.19444444444444445,-2.515
498671,0.19722222222222222,-2.52
498672,0.2,-2.54
498673,0.20277777777777778,-2.545
498674,0.20555555555555555,-2.545
498675,0.20833333333333334,-2.57
498676,0.2111111111111111,-2.565
498677,0.21388888888888888,-2.57
498678,0.21666666666666667,-2.575
498679,0.21944444444444444,-2.57
498680,0.2222222222222222,-2.575
498681,0.225,-2.58
498682,0.22777777777777777,-2.575
498683,0.23055555555555557,-2.57
498684,0.23333333333333334,-2.595
498685,0.2361111111111111,-2.59
498686,0.2388888888888889,-2.61
498687,0.24166666666666667,-2.63
498688,0.24444444444444444,-2.63
498689,0.24722222222222223,-2.63
498690,0.25,-2.65
498691,0.25277777777777777,-2.63
498692,0.25555555555555554,-2.64
498693,0.25833333333333336,-2.615
498694,0.2611111111111111,-2.6
498695,0.2638888888888889,-2.61
498696,0.26666666666666666,-2.6
498697,0.26944444444444443,-2.62
498698,0.2722222222222222,-2.63
498699,0.275,-2.65
498700,0.2777777777777778,-2.655
498701,0.28055555555555556,-2.66
498702,0.2833333333333333,-2.665
498703,0.2861111111111111,-2.66
498704,0.28888888888888886,-2.66
498705,0.2916666666666667,-2.65
498706,0.29444444444444445,-2.645
498707,0.2972222222222222,-2.645
498708,0.3,-2.645
498709,0.30277777777777776,-2.64
498710,0.3055555555555556,-2.65
498711,0.30833333333333335,-2.665
498712,0.3111111111111111,-2.68
498713,0.3138888888888889,-2.685
498714,0.31666666666666665,-2.68
498715,0.3194444444444444,-2.68
498716,0.32222222222222224,-2.655
498717,0.325,-2.605
498718,0.3277777777777778,-2.58
498719,0.33055555555555555,-2.57
498720,0.3333333333333333,-2.575
498721,0.33611111111111114,-2.575
498722,0.3388888888888889,-2.58
498723,0.3416666666666667,-2.58
498724,0.34444444444444444,-2.585
498725,0.3472222222222222,-2.58
498726,0.35,-2.575
498727,0.3527777777777778,-2.57
498728,0.35555555555555557,-2.55
498729,0.35833333333333334,-2.535
498730,0.3611111111111111,-2.505
498731,0.3638888888888889,-2.48
498732,0.36666666666666664,-2.465
498733,0.36944444444444446,-2.48
498734,0.37222222222222223,-2.515
498735,0.375,-2.535
498736,0.37777777777777777,-2.55
498737,0.38055555555555554,-2.59
498738,0.38333333333333336,-2.59
498739,0.3861111111111111,-2.595
498740,0.3888888888888889,-2.6
498741,0.39166666666666666,-2.58
498742,0.39444444444444443,-2.585
498743,0.3972222222222222,-2.6
498744,0.4,-2.6
498745,0.4027777777777778,-2.61
498746,0.40555555555555556,-2.645
498747,0.4083333333333333,-2.655
498748,0.4111111111111111,-2.68
498749,0.41388888888888886,-2.705
498750,0.4166666666666667,-2.73
498751,0.41944444444444445,-2.74
498752,0.4222222222222222,-2.765
498753,0.425,-2.755
498754,0.42777777777777776,-2.75
498755,0.4305555555555556,-2.74
498756,0.43333333333333335,-2.745
498757,0.4361111111111111,-2.745
498758,0.4388888888888889,-2.76
498759,0.44166666666666665,-2.755
498760,0.4444444444444444,-2.755
498761,0.44722222222222224,-2.765
498762,0.45,-2.76
498763,0.4527777777777778,-2.745
498764,0.45555555555555555,-2.75
498765,0.4583333333333333,-2.735
498766,0.46111111111111114,-2.725
498767,0.4638888888888889,-2.735
498768,0.4666666666666667,-2.73
498769,0.46944444444444444,-2.685
498770,0.4722222222222222,-2.62
498771,0.475,-2.495
498772,0.4777777777777778,-2.34
498773,0.48055555555555557,-2.14
498774,0.48333333333333334,-1.87
498775,0.4861111111111111,-1.595
498776,0.4888888888888889,-1.295
498777,0.49166666666666664,-0.995
498778,0.49444444444444446,-0.735
498779,0.49722222222222223,-0.555
498780,0.5,-0.475
498781,0.5027777777777778,-0.54
498782,0.5055555555555555,-0.785
498783,0.5083333333333333,-1.235
498784,0.5111111111111111,-1.815
498785,0.5138888888888888,-2.445
498786,0.5166666666666667,-3.01
498787,0.5194444444444445,-3.4
498788,0.5222222222222223,-3.55
498789,0.525,-3.465
498790,0.5277777777777778,-3.255
498791,0.5305555555555556,-3.03
498792,0.5333333333333333,-2.825
498793,0.5361111111111111,-2.695
498794,0.5388888888888889,-2.62
498795,0.5416666666666666,-2.645
498796,0.5444444444444444,-2.68
498797,0.5472222222222223,-2.715
498798,0.55,-2.745
498799,0.5527777777777778,-2.76
498800,0.5555555555555556,-2.75
498801,0.5583333333333333,-2.745
498802,0.5611111111111111,-2.735
498803,0.5638888888888889,-2.725
498804,0.5666666666666667,-2.71
498805,0.5694444444444444,-2.72
498806,0.5722222222222222,-2.725
498807,0.575,-2.74
498808,0.5777777777777777,-2.75
498809,0.5805555555555556,-2.74
498810,0.5833333333333334,-2.725
498811,0.5861111111111111,-2.71
498812,0.5888888888888889,-2.68
498813,0.5916666666666667,-2.68
498814,0.5944444444444444,-2.66
498815,0.5972222222222222,-2.67
498816,0.6,-2.665
498817,0.6027777777777777,-2.665
498818,0.6055555555555555,-2.67
498819,0.6083333333333333,-2.67
498820,0.6111111111111112,-2.67
498821,0.6138888888888889,-2.685
498822,0.6166666666666667,-2.665
498823,0.6194444444444445,-2.65
498824,0.6222222222222222,-2.65
498825,0.625,-2.635
498826,0.6277777777777778,-2.615
498827,0.6305555555555555,-2.605
498828,0.6333333333333333,-2.61
498829,0.6361111111111111,-2.61
498830,0.6388888888888888,-2.61
498831,0.6416666666666667,-2.615
498832,0.6444444444444445,-2.61
498833,0.6472222222222223,-2.61
498834,0.65,-2.61
498835,0.6527777777777778,-2.595
498836,0.6555555555555556,-2.585
498837,0.6583333333333333,-2.565
498838,0.6611111111111111,-2.545
498839,0.6638888888888889,-2.54
498840,0.6666666666666666,-2.545
498841,0.6694444444444444,-2.525
498842,0.6722222222222223,-2.525
498843,0.675,-2.505
498844,0.6777777777777778,-2.505
498845,0.6805555555555556,-2.49
498846,0.6833333333333333,-2.475
498847,0.6861111111111111,-2.46
498848,0.6888888888888889,-2.44
498849,0.6916666666666667,-2.43
498850,0.6944444444444444,-2.42
498851,0.6972222222222222,-2.4
498852,0.7,-2.41
498853,0.7027777777777777,-2.4
498854,0.7055555555555556,-2.405
498855,0.7083333333333334,-2.405
498856,0.7111111111111111,-2.39
498857,0.7138888888888889,-2.39
498858,0.7166666666666667,-2.39
498859,0.7194444444444444,-2.38
498860,0.7222222222222222,-2.38
498861,0.725,-2.365
498862,0.7277777777777777,-2.35
498863,0.7305555555555555,-2.36
498864,0.7333333333333333,-2.365
498865,0.7361111111111112,-2.37
498866,0.7388888888888889,-2.37
498867,0.7416666666666667,-2.405
498868,0.7444444444444445,-2.435
498869,0.7472222222222222,-2.415
498870,0.75,-2.42
498871,0.7527777777777778,-2.425
498872,0.7555555555555555,-2.42
498873,0.7583333333333333,-2.425
498874,0.7611111111111111,-2.41
498875,0.7638888888888888,-2.415
498876,0.7666666666666667,-2.425
498877,0.7694444444444445,-2.43
498878,0.7722222222222223,-2.45
498879,0.775,-2.46
498880,0.7777777777777778,-2.5
498881,0.7805555555555556,-2.525
498882,0.7833333333333333,-2.525
498883,0.7861111111111111,-2.51
498884,0.7888888888888889,-2.525
498885,0.7916666666666666,-2.53
498886,0.7944444444444444,-2.535
498887,0.7972222222222223,-2.55
498888,0.8,-2.565
498889,0.8027777777777778,-2.585
498890,0.8055555555555556,-2.615
498891,0.8083333333333333,-2.63
498892,0.8111111111111111,-2.64
498893,0.8138888888888889,-2.64
498894,0.8166666666666667,-2.64
498895,0.8194444444444444,-2.64
498896,0.8222222222222222,-2.63
498897,0.825,-2.62
498898,0.8277777777777777,-2.62
498899,0.8305555555555556,-2.63
498900,0.8333333333333334,-2.635
498901,0.8361111111111111,-2.655
498902,0.8388888888888889,-2.65
498903,0.8416666666666667,-2.665
498904,0.8444444444444444,-2.665
498905,0.8472222222222222,-2.68
498906,0.85,-2.675
498907,0.8527777777777777,-2.66
498908,0.8555555555555555,-2.66
498909,0.8583333333333333,-2.64
498910,0.8611111111111112,-2.625
498911,0.8638888888888889,-2.615
498912,0.8666666666666667,-2.62
498913,0.8694444444444445,-2.635
498914,0.8722222222222222,-2.65
498915,0.875,-2.655
498916,0.8777777777777778,-2.665
498917,0.8805555555555555,-2.68
498918,0.8833333333333333,-2.665
498919,0.8861111111111111,-2.665
498920,0.8888888888888888,-2.65
498921,0.8916666666666667,-2.635
498922,0.8944444444444445,-2.63
498923,0.8972222222222223,-2.65
498924,0.9,-2.645
498925,0.9027777777777778,-2.635
498926,0.9055555555555556,-2.675
498927,0.9083333333333333,-2.685
498928,0.9111111111111111,-2.66
498929,0.9138888888888889,-2.66
498930,0.9166666666666666,-2.655
498931,0.9194444444444444,-2.655
498932,0.9222222222222223,-2.64
498933,0.925,-2.64
498934,0.9277777777777778,-2.64
498935,0.9305555555555556,-2.65
498936,0.9333333333333333,-2.67
498937,0.9361111111111111,-2.695
498938,0.9388888888888889,-2.71
498939,0.9416666666666667,-2.705
498940,0.9444444444444444,-2.72
498941,0.9472222222222222,-2.715
498942,0.95,-2.72
498943,0.9527777777777777,-2.715
498944,0.9555555555555556,-2.695
498945,0.9583333333333334,-2.685
498946,0.9611111111111111,-2.675
498947,0.9638888888888889,-2.685
498948,0.9666666666666667,-2.695
498949,0.9694444444444444,-2.695
498950,0.9722222222222222,-2.71
498951,0.975,-2.725
498952,0.9777777777777777,-2.73
498953,0.9805555555555555,-2.73
498954,0.9833333333333333,-2.735
498955,0.9861111111111112,-2.73
498956,0.9888888888888889,-2.735
498957,0.9916666666666667,-2.71
498958,0.9944444444444445,-2.71
498959,0.9972222222222222,-2.71
498960,1.0,-2.71
498961,1.0027777777777778,-2.72
498962,1.0055555555555555,-2.725
498963,1.0083333333333333,-2.74
498964,1.011111111111111,-2.74
498965,1.0138888888888888,-2.74
498966,1.0166666666666666,-2.74
498967,1.0194444444444444,-2.74
498968,1.0222222222222221,-2.725
498969,1.025,-2.72
498970,1.0277777777777777,-2.73
498971,1.0305555555555554,-2.735
498972,1.0333333333333334,-2.74
498973,1.0361111111111112,-2.745
498974,1.038888888888889,-2.74
498975,1.0416666666666667,-2.76
498976,1.0444444444444445,-2.76
498977,1.0472222222222223,-2.76
498978,1.05,-2.75
498979,1.0527777777777778,-2.75
498980,1.0555555555555556,-2.745
498981,1.0583333333333333,-2.735
498982,1.0611111111111111,-2.715
498983,1.0638888888888889,-2.71
498984,1.0666666666666667,-2.685
498985,1.0694444444444444,-2.71
498986,1.0722222222222222,-2.7
498987,1.075,-2.675
498988,1.0777777777777777,-2.67
498989,1.0805555555555555,-2.665
498990,1.0833333333333333,-2.67
498991,1.086111111111111,-2.65
498992,1.0888888888888888,-2.645
498993,1.0916666666666666,-2.635
498994,1.0944444444444446,-2.63
498995,1.0972222222222223,-2.615
498996,1.1,-2.61
498997,1.1027777777777779,-2.615
498998,1.1055555555555556,-2.61
498999,1.1083333333333334,-2.605
499000,1.1111111111111112,-2.615
499001,1.113888888888889,-2.59
499002,1.1166666666666667,-2.575
499003,1.1194444444444445,-2.575
499004,1.1222222222222222,-2.575
499005,1.125,-2.605
499006,1.1277777777777778,-2.6
499007,1.1305555555555555,-2.61
499008,1.1333333333333333,-2.59
499009,1.136111111111111,-2.6
499010,1.1388888888888888,-2.61
499011,1.1416666666666666,-2.62
499012,1.1444444444444444,-2.64
499013,1.1472222222222221,-2.67
499014,1.15,-2.665
499015,1.1527777777777777,-2.675
499016,1.1555555555555554,-2.675
499017,1.1583333333333334,-2.71
499018,1.1611111111111112,-2.72
499019,1.163888888888889,-2.75
499020,1.1666666666666667,-2.765
499021,1.1694444444444445,-2.78
499022,1.1722222222222223,-2.82
499023,1.175,-2.83
499024,1.1777777777777778,-2.825
499025,1.1805555555555556,-2.82
499026,1.1833333333333333,-2.83
499027,1.1861111111111111,-2.81
499028,1.1888888888888889,-2.8
499029,1.1916666666666667,-2.785
499030,1.1944444444444444,-2.775
499031,1.1972222222222222,-2.78
499032,1.2,-2.79
499033,1.2027777777777777,-2.78
499034,1.2055555555555555,-2.79
499035,1.2083333333333333,-2.82
499036,1.211111111111111,-2.805
499037,1.2138888888888888,-2.805
499038,1.2166666666666666,-2.795
499039,1.2194444444444446,-2.77
499040,1.2222222222222223,-2.76
499041,1.225,-2.725
499042,1.2277777777777779,-2.66
499043,1.2305555555555556,-2.56
499044,1.2333333333333334,-2.42
499045,1.2361111111111112,-2.24
499046,1.238888888888889,-2.025
499047,1.2416666666666667,-1.79
499048,1.2444444444444445,-1.505
499049,1.2472222222222222,-1.215
499050,1.25,-0.945
499051,1.2527777777777778,-0.685
499052,1.2555555555555555,-0.515
499053,1.2583333333333333,-0.425
499054,1.261111111111111,-0.435
499055,1.2638888888888888,-0.645
499056,1.2666666666666666,-1.07
499057,1.2694444444444444,-1.71
499058,1.2722222222222221,-2.35
499059,1.275,-2.99
499060,1.2777777777777777,-3.46
499061,1.2805555555555554,-3.525
499062,1.2833333333333334,-3.35
499063,1.2861111111111112,-3.08
499064,1.288888888888889,-2.805
499065,1.2916666666666667,-2.62
499066,1.2944444444444445,-2.565
499067,1.2972222222222223,-2.57
499068,1.3,-2.625
499069,1.3027777777777778,-2.71
499070,1.3055555555555556,-2.775
499071,1.3083333333333333,-2.82
499072,1.3111111111111111,-2.835
499073,1.3138888888888889,-2.84
499074,1.3166666666666667,-2.82
499075,1.3194444444444444,-2.8
499076,1.3222222222222222,-2.775
499077,1.325,-2.76
499078,1.3277777777777777,-2.74
499079,1.3305555555555555,-2.725
499080,1.3333333333333333,-2.735
499081,1.336111111111111,-2.755
499082,1.3388888888888888,-2.735
499083,1.3416666666666666,-2.745
499084,1.3444444444444446,-2.755
499085,1.3472222222222223,-2.755
499086,1.35,-2.735
499087,1.3527777777777779,-2.74
499088,1.3555555555555556,-2.745
499089,1.3583333333333334,-2.73
499090,1.3611111111111112,-2.705
499091,1.363888888888889,-2.69
499092,1.3666666666666667,-2.685
499093,1.3694444444444445,-2.68
499094,1.3722222222222222,-2.69
499095,1.375,-2.695
499096,1.3777777777777778,-2.69
499097,1.3805555555555555,-2.7
499098,1.3833333333333333,-2.685
499099,1.386111111111111,-2.655
499100,1.3888888888888888,-2.645
499101,1.3916666666666666,-2.63
499102,1.3944444444444444,-2.62
499103,1.3972222222222221,-2.615
499104,1.4,-2.62
499105,1.4027777777777777,-2.615
499106,1.4055555555555554,-2.615
499107,1.4083333333333334,-2.61
499108,1.4111111111111112,-2.59
499109,1.413888888888889,-2.58
499110,1.4166666666666667,-2.555
499111,1.4194444444444445,-2.555
499112,1.4222222222222223,-2.51
499113,1.425,-2.505
499114,1.4277777777777778,-2.495
499115,1.4305555555555556,-2.485
499116,1.4333333333333333,-2.475
499117,1.4361111111111111,-2.465
499118,1.4388888888888889,-2.465
499119,1.4416666666666667,-2.475
499120,1.4444444444444444,-2.465
499121,1.4472222222222222,-2.465
499122,1.45,-2.44
499123,1.4527777777777777,-2.4
499124,1.4555555555555555,-2.375
499125,1.4583333333333333,-2.37
499126,1.461111111111111,-2.35
499127,1.4638888888888888,-2.35
499128,1.4666666666666666,-2.35
499129,1.4694444444444446,-2.36
499130,1.4722222222222223,-2.36
499131,1.475,-2.37
499132,1.4777777777777779,-2.38
499133,1.4805555555555556,-2.385
499134,1.4833333333333334,-2.385
499135,1.4861111111111112,-2.365
499136,1.488888888888889,-2.36
499137,1.4916666666666667,-2.365
499138,1.4944444444444445,-2.365
499139,1.4972222222222222,-2.38
499140,1.5,-2.385
499141,1.5027777777777778,-2.375
499142,1.5055555555555555,-2.405
499143,1.5083333333333333,-2.425
499144,1.511111111111111,-2.445
499145,1.5138888888888888,-2.465
499146,1.5166666666666666,-2.48
499147,1.5194444444444444,-2.49
499148,1.5222222222222221,-2.48
499149,1.525,-2.505
499150,1.5277777777777777,-2.5
499151,1.5305555555555554,-2.53
499152,1.5333333333333334,-2.55
499153,1.5361111111111112,-2.57
499154,1.538888888888889,-2.595
499155,1.5416666666666667,-2.61
499156,1.5444444444444445,-2.615
499157,1.5472222222222223,-2.63
499158,1.55,-2.635
499159,1.5527777777777778,-2.65
499160,1.5555555555555556,-2.65
499161,1.5583333333333333,-2.63
499162,1.5611111111111111,-2.615
499163,1.5638888888888889,-2.62
499164,1.5666666666666667,-2.64
499165,1.5694444444444444,-2.635
499166,1.5722222222222222,-2.64
499167,1.575,-2.64
499168,1.5777777777777777,-2.665
499169,1.5805555555555555,-2.67
499170,1.5833333333333333,-2.67
499171,1.586111111111111,-2.655
499172,1.5888888888888888,-2.65
499173,1.5916666666666666,-2.64
499174,1.5944444444444446,-2.62
499175,1.5972222222222223,-2.615
499176,1.6,-2.63
499177,1.6027777777777779,-2.615
499178,1.6055555555555556,-2.625
499179,1.6083333333333334,-2.64
499180,1.6111111111111112,-2.63
499181,1.613888888888889,-2.65
499182,1.6166666666666667,-2.64
499183,1.6194444444444445,-2.64
499184,1.6222222222222222,-2.63
499185,1.625,-2.635
499186,1.6277777777777778,-2.615
499187,1.6305555555555555,-2.62
499188,1.6333333333333333,-2.61
499189,1.636111111111111,-2.62
499190,1.6388888888888888,-2.635
499191,1.6416666666666666,-2.66
499192,1.6444444444444444,-2.66
499193,1.6472222222222221,-2.66
499194,1.65,-2.66
499195,1.6527777777777777,-2.66
499196,1.6555555555555554,-2.66
499197,1.6583333333333334,-2.655
499198,1.6611111111111112,-2.645
499199,1.663888888888889,-2.655
499200,1.6666666666666667,-2.675
499201,1.6694444444444445,-2.685
499202,1.6722222222222223,-2.71
499203,1.675,-2.695
499204,1.6777777777777778,-2.705
499205,1.6805555555555556,-2.7
499206,1.6833333333333333,-2.71
499207,1.6861111111111111,-2.7
499208,1.6888888888888889,-2.695
499209,1.6916666666666667,-2.685
499210,1.6944444444444444,-2.685
499211,1.6972222222222222,-2.7
499212,1.7,-2.695
499213,1.7027777777777777,-2.705
499214,1.7055555555555555,-2.715
499215,1.7083333333333333,-2.72
499216,1.711111111111111,-2.725
499217,1.7138888888888888,-2.725
499218,1.7166666666666666,-2.73
499219,1.7194444444444446,-2.715
499220,1.7222222222222223,-2.705
499221,1.725,-2.695
499222,1.7277777777777779,-2.69
499223,1.7305555555555556,-2.695
499224,1.7333333333333334,-2.69
499225,1.7361111111111112,-2.695
499226,1.738888888888889,-2.69
499227,1.7416666666666667,-2.7
499228,1.7444444444444445,-2.7
499229,1.7472222222222222,-2.725
499230,1.75,-2.715
499231,1.7527777777777778,-2.715
499232,1.7555555555555555,-2.71
499233,1.7583333333333333,-2.71
499234,1.761111111111111,-2.685
499235,1.7638888888888888,-2.695
499236,1.7666666666666666,-2.695
499237,1.7694444444444444,-2.68
499238,1.7722222222222221,-2.695
499239,1.775,-2.7
499240,1.7777777777777777,-2.705
499241,1.7805555555555554,-2.71
499242,1.7833333333333334,-2.69
499243,1.7861111111111112,-2.685
499244,1.788888888888889,-2.67
499245,1.7916666666666667,-2.645
499246,1.7944444444444445,-2.615
499247,1.7972222222222223,-2.635
499248,1.8,-2.6
499249,1.8027777777777778,-2.61
499250,1.8055555555555556,-2.59
499251,1.8083333333333333,-2.585
499252,1.8111111111111111,-2.6
499253,1.8138888888888889,-2.58
499254,1.8166666666666667,-2.58
499255,1.8194444444444444,-2.57
499256,1.8222222222222222,-2.555
499257,1.825,-2.55
499258,1.8277777777777777,-2.545
499259,1.8305555555555555,-2.535
499260,1.8333333333333333,-2.51
499261,1.836111111111111,-2.51
499262,1.8388888888888888,-2.485
499263,1.8416666666666666,-2.5
499264,1.8444444444444446,-2.5
499265,1.8472222222222223,-2.525
499266,1.85,-2.53
499267,1.8527777777777779,-2.53
499268,1.8555555555555556,-2.545
499269,1.8583333333333334,-2.54
499270,1.8611111111111112,-2.525
499271,1.863888888888889,-2.535
499272,1.8666666666666667,-2.535
499273,1.8694444444444445,-2.57
499274,1.8722222222222222,-2.575
499275,1.875,-2.61
499276,1.8777777777777778,-2.63
499277,1.8805555555555555,-2.665
499278,1.8833333333333333,-2.715
499279,1.886111111111111,-2.72
499280,1.8888888888888888,-2.735
499281,1.8916666666666666,-2.76
499282,1.8944444444444444,-2.75
499283,1.8972222222222221,-2.755
499284,1.9,-2.755
499285,1.9027777777777777,-2.735
499286,1.9055555555555554,-2.735
499287,1.9083333333333334,-2.755
499288,1.9111111111111112,-2.745
499289,1.913888888888889,-2.745
499290,1.9166666666666667,-2.755
499291,1.9194444444444445,-2.75
499292,1.9222222222222223,-2.735
499293,1.925,-2.7
499294,1.9277777777777778,-2.69
499295,1.9305555555555556,-2.69
499296,1.9333333333333333,-2.685
499297,1.9361111111111111,-2.705
499298,1.9388888888888889,-2.705
499299,1.9416666666666667,-2.7
499300,1.9444444444444444,-2.68
499301,1.9472222222222222,-2.64
499302,1.95,-2.575
499303,1.9527777777777777,-2.43
499304,1.9555555555555555,-2.245
499305,1.9583333333333333,-2.025
499306,1.961111111111111,-1.765
499307,1.9638888888888888,-1.465
499308,1.9666666666666666,-1.16
499309,1.9694444444444446,-0.85
499310,1.9722222222222223,-0.565
499311,1.975,-0.36
499312,1.9777777777777779,-0.215
499313,1.9805555555555556,-0.18
499314,1.9833333333333334,-0.315
499315,1.9861111111111112,-0.65
499316,1.988888888888889,-1.215
499317,1.9916666666666667,-1.855
499318,1.9944444444444445,-2.495
499319,1.9972222222222222,-3.135
499320,2.0,-3.405
499321,2.0027777777777778,-3.365
499322,2.0055555555555555,-3.15
499323,2.0083333333333333,-2.865
499324,2.011111111111111,-2.64
499325,2.013888888888889,-2.51
499326,2.0166666666666666,-2.485
499327,2.0194444444444444,-2.51
499328,2.022222222222222,-2.575
499329,2.025,-2.635
499330,2.0277777777777777,-2.68
499331,2.0305555555555554,-2.695
499332,2.033333333333333,-2.695
499333,2.036111111111111,-2.69
499334,2.0388888888888888,-2.67
499335,2.0416666666666665,-2.67
499336,2.0444444444444443,-2.665
499337,2.047222222222222,-2.685
499338,2.05,-2.68
499339,2.0527777777777776,-2.67
499340,2.0555555555555554,-2.66
499341,2.058333333333333,-2.63
499342,2.061111111111111,-2.605
499343,2.063888888888889,-2.595
499344,2.066666666666667,-2.595
499345,2.0694444444444446,-2.595
499346,2.0722222222222224,-2.595
499347,2.075,-2.62
499348,2.077777777777778,-2.625
499349,2.0805555555555557,-2.61
499350,2.0833333333333335,-2.6
499351,2.0861111111111112,-2.575
499352,2.088888888888889,-2.57
499353,2.091666666666667,-2.555
499354,2.0944444444444446,-2.545
499355,2.0972222222222223,-2.55
499356,2.1,-2.53
499357,2.102777777777778,-2.545
499358,2.1055555555555556,-2.53
499359,2.1083333333333334,-2.53
499360,2.111111111111111,-2.53
499361,2.113888888888889,-2.515
499362,2.1166666666666667,-2.505
499363,2.1194444444444445,-2.515
499364,2.1222222222222222,-2.49
499365,2.125,-2.475
499366,2.1277777777777778,-2.46
499367,2.1305555555555555,-2.445
499368,2.1333333333333333,-2.435
499369,2.136111111111111,-2.43
499370,2.138888888888889,-2.43
499371,2.1416666666666666,-2.42
499372,2.1444444444444444,-2.415
499373,2.147222222222222,-2.415
499374,2.15,-2.36
499375,2.1527777777777777,-2.34
499376,2.1555555555555554,-2.32
499377,2.158333333333333,-2.3
499378,2.161111111111111,-2.29
499379,2.1638888888888888,-2.305
499380,2.1666666666666665,-2.295
499381,2.1694444444444443,-2.295
499382,2.172222222222222,-2.285
499383,2.175,-2.275
499384,2.1777777777777776,-2.265
499385,2.1805555555555554,-2.255
499386,2.183333333333333,-2.24
499387,2.186111111111111,-2.23
499388,2.188888888888889,-2.215
499389,2.191666666666667,-2.2
499390,2.1944444444444446,-2.215
499391,2.1972222222222224,-2.2
499392,2.2,-2.2
499393,2.202777777777778,-2.2
499394,2.2055555555555557,-2.2
499395,2.2083333333333335,-2.215
499396,2.2111111111111112,-2.225
499397,2.213888888888889,-2.24
499398,2.216666666666667,-2.25
499399,2.2194444444444446,-2.255
499400,2.2222222222222223,-2.25
499401,2.225,-2.26
499402,2.227777777777778,-2.255
499403,2.2305555555555556,-2.25
499404,2.2333333333333334,-2.265
499405,2.236111111111111,-2.28
499406,2.238888888888889,-2.305
499407,2.2416666666666667,-2.325
499408,2.2444444444444445,-2.36
499409,2.2472222222222222,-2.38
499410,2.25,-2.405
499411,2.2527777777777778,-2.405
499412,2.2555555555555555,-2.39
499413,2.2583333333333333,-2.375
499414,2.261111111111111,-2.4
499415,2.263888888888889,-2.415
499416,2.2666666666666666,-2.44
499417,2.2694444444444444,-2.465
499418,2.272222222222222,-2.49
499419,2.275,-2.495
499420,2.2777777777777777,-2.5
499421,2.2805555555555554,-2.505
499422,2.283333333333333,-2.525
499423,2.286111111111111,-2.5
499424,2.2888888888888888,-2.49
499425,2.2916666666666665,-2.49
499426,2.2944444444444443,-2.47
499427,2.297222222222222,-2.475
499428,2.3,-2.48
499429,2.3027777777777776,-2.495
499430,2.3055555555555554,-2.49
499431,2.308333333333333,-2.505
499432,2.311111111111111,-2.5
499433,2.313888888888889,-2.505
499434,2.316666666666667,-2.505
499435,2.3194444444444446,-2.505
499436,2.3222222222222224,-2.5
499437,2.325,-2.49
499438,2.327777777777778,-2.46
499439,2.3305555555555557,-2.455
499440,2.3333333333333335,-2.465
499441,2.3361111111111112,-2.47
499442,2.338888888888889,-2.47
499443,2.341666666666667,-2.47
499444,2.3444444444444446,-2.465
499445,2.3472222222222223,-2.475
499446,2.35,-2.49
499447,2.352777777777778,-2.485
499448,2.3555555555555556,-2.475
499449,2.3583333333333334,-2.47
499450,2.361111111111111,-2.455
499451,2.363888888888889,-2.465
499452,2.3666666666666667,-2.465
499453,2.3694444444444445,-2.475
499454,2.3722222222222222,-2.485
499455,2.375,-2.495
499456,2.3777777777777778,-2.51
499457,2.3805555555555555,-2.52
499458,2.3833333333333333,-2.54
499459,2.386111111111111,-2.535
499460,2.388888888888889,-2.5
499461,2.3916666666666666,-2.49
499462,2.3944444444444444,-2.48
499463,2.397222222222222,-2.48
499464,2.4,-2.5
499465,2.4027777777777777,-2.51
499466,2.4055555555555554,-2.525
499467,2.408333333333333,-2.52
499468,2.411111111111111,-2.515
499469,2.4138888888888888,-2.545
499470,2.4166666666666665,-2.555
499471,2.4194444444444443,-2.545
499472,2.422222222222222,-2.54
499473,2.425,-2.535
499474,2.4277777777777776,-2.53
499475,2.4305555555555554,-2.52
499476,2.433333333333333,-2.52
499477,2.436111111111111,-2.53
499478,2.438888888888889,-2.53
499479,2.441666666666667,-2.545
499480,2.4444444444444446,-2.555
499481,2.4472222222222224,-2.55
499482,2.45,-2.555
499483,2.452777777777778,-2.545
499484,2.4555555555555557,-2.525
499485,2.4583333333333335,-2.53
499486,2.4611111111111112,-2.505
499487,2.463888888888889,-2.52
499488,2.466666666666667,-2.51
499489,2.4694444444444446,-2.53
499490,2.4722222222222223,-2.545
499491,2.475,-2.535
499492,2.477777777777778,-2.54
499493,2.4805555555555556,-2.555
499494,2.4833333333333334,-2.555
499495,2.486111111111111,-2.555
499496,2.488888888888889,-2.545
499497,2.4916666666666667,-2.545
499498,2.4944444444444445,-2.53
499499,2.4972222222222222,-2.525
499500,2.5,-2.53
499501,2.5027777777777778,-2.535
499502,2.5055555555555555,-2.55
499503,2.5083333333333333,-2.54
499504,2.511111111111111,-2.535
499505,2.513888888888889,-2.53
499506,2.5166666666666666,-2.53
499507,2.5194444444444444,-2.5
499508,2.522222222222222,-2.48
499509,2.525,-2.45
499510,2.5277777777777777,-2.41
499511,2.5305555555555554,-2.41
499512,2.533333333333333,-2.405
499513,2.536111111111111,-2.405
499514,2.5388888888888888,-2.415
499515,2.5416666666666665,-2.43
499516,2.5444444444444443,-2.425
499517,2.547222222222222,-2.435
499518,2.55,-2.435
499519,2.5527777777777776,-2.435
499520,2.5555555555555554,-2.385
499521,2.558333333333333,-2.36
499522,2.561111111111111,-2.32
499523,2.563888888888889,-2.325
499524,2.566666666666667,-2.335
499525,2.5694444444444446,-2.325
499526,2.5722222222222224,-2.35
499527,2.575,-2.365
499528,2.577777777777778,-2.375
499529,2.5805555555555557,-2.395
499530,2.5833333333333335,-2.395
499531,2.5861111111111112,-2.39
499532,2.588888888888889,-2.395
499533,2.591666666666667,-2.41
499534,2.5944444444444446,-2.4
499535,2.5972222222222223,-2.41
499536,2.6,-2.42
499537,2.602777777777778,-2.455
499538,2.6055555555555556,-2.475
499539,2.6083333333333334,-2.5
499540,2.611111111111111,-2.525
499541,2.613888888888889,-2.55
499542,2.6166666666666667,-2.565
499543,2.6194444444444445,-2.585
499544,2.6222222222222222,-2.595
499545,2.625,-2.575
499546,2.6277777777777778,-2.56
499547,2.6305555555555555,-2.55
499548,2.6333333333333333,-2.555
499549,2.636111111111111,-2.545
499550,2.638888888888889,-2.555
499551,2.6416666666666666,-2.56
499552,2.6444444444444444,-2.575
499553,2.647222222222222,-2.58
499554,2.65,-2.575
499555,2.6527777777777777,-2.57
499556,2.6555555555555554,-2.55
499557,2.658333333333333,-2.545
499558,2.661111111111111,-2.53
499559,2.6638888888888888,-2.525
499560,2.6666666666666665,-2.52
499561,2.6694444444444443,-2.505
499562,2.672222222222222,-2.485
499563,2.675,-2.41
499564,2.6777777777777776,-2.32
499565,2.6805555555555554,-2.155
499566,2.683333333333333,-1.945
499567,2.686111111111111,-1.695
499568,2.688888888888889,-1.435
499569,2.691666666666667,-1.16
499570,2.6944444444444446,-0.86
499571,2.6972222222222224,-0.58
499572,2.7,-0.345
499573,2.702777777777778,-0.13
499574,2.7055555555555557,0.01
499575,2.7083333333333335,0.04
499576,2.7111111111111112,-0.08
499577,2.713888888888889,-0.435
499578,2.716666666666667,-1.02
499579,2.7194444444444446,-1.66
499580,2.7222222222222223,-2.3
499581,2.725,-2.94
499582,2.727777777777778,-3.225
499583,2.7305555555555556,-3.18
499584,2.7333333333333334,-2.965
499585,2.736111111111111,-2.665
499586,2.738888888888889,-2.445
499587,2.7416666666666667,-2.32
499588,2.7444444444444445,-2.31
499589,2.7472222222222222,-2.36
499590,2.75,-2.435
499591,2.7527777777777778,-2.49
499592,2.7555555555555555,-2.54
499593,2.7583333333333333,-2.535
499594,2.761111111111111,-2.525
499595,2.763888888888889,-2.51
499596,2.7666666666666666,-2.505
499597,2.7694444444444444,-2.5
499598,2.772222222222222,-2.51
499599,2.775,-2.52
499600,2.7777777777777777,-2.515
499601,2.7805555555555554,-2.525
499602,2.783333333333333,-2.515
499603,2.786111111111111,-2.52
499604,2.7888888888888888,-2.5
499605,2.7916666666666665,-2.485
499606,2.7944444444444443,-2.47
499607,2.797222222222222,-2.46
499608,2.8,-2.45
499609,2.8027777777777776,-2.435
499610,2.8055555555555554,-2.44
499611,2.808333333333333,-2.445
499612,2.811111111111111,-2.455
499613,2.813888888888889,-2.46
499614,2.816666666666667,-2.46
499615,2.8194444444444446,-2.44
499616,2.8222222222222224,-2.435
499617,2.825,-2.43
499618,2.827777777777778,-2.415
499619,2.8305555555555557,-2.405
499620,2.8333333333333335,-2.405
499621,2.8361111111111112,-2.39
499622,2.838888888888889,-2.39
499623,2.841666666666667,-2.405
499624,2.8444444444444446,-2.405
499625,2.8472222222222223,-2.4
499626,2.85,-2.38
499627,2.852777777777778,-2.38
499628,2.8555555555555556,-2.36
499629,2.8583333333333334,-2.345
499630,2.861111111111111,-2.305
499631,2.863888888888889,-2.29
499632,2.8666666666666667,-2.285
499633,2.8694444444444445,-2.275
499634,2.8722222222222222,-2.29
499635,2.875,-2.29
499636,2.8777777777777778,-2.265
499637,2.8805555555555555,-2.27
499638,2.8833333333333333,-2.25
499639,2.886111111111111,-2.24
499640,2.888888888888889,-2.22
499641,2.8916666666666666,-2.23
499642,2.8944444444444444,-2.195
499643,2.897222222222222,-2.175
499644,2.9,-2.145
499645,2.9027777777777777,-2.14
499646,2.9055555555555554,-2.125
499647,2.908333333333333,-2.11
499648,2.911111111111111,-2.105
499649,2.9138888888888888,-2.105
499650,2.9166666666666665,-2.095
499651,2.9194444444444443,-2.08
499652,2.922222222222222,-2.065
499653,2.925,-2.06
499654,2.9277777777777776,-2.035
499655,2.9305555555555554,-2.025
499656,2.933333333333333,-2.02
499657,2.936111111111111,-2.035
499658,2.938888888888889,-2.04
499659,2.941666666666667,-2.035
499660,2.9444444444444446,-2.045
499661,2.9472222222222224,-2.045
499662,2.95,-2.045
499663,2.952777777777778,-2.065
499664,2.9555555555555557,-2.055
499665,2.9583333333333335,-2.03
499666,2.9611111111111112,-2.045
499667,2.963888888888889,-2.035
499668,2.966666666666667,-2.05
499669,2.9694444444444446,-2.075
499670,2.9722222222222223,-2.09
499671,2.975,-2.1
499672,2.977777777777778,-2.14
499673,2.9805555555555556,-2.15
499674,2.9833333333333334,-2.175
499675,2.986111111111111,-2.18
499676,2.988888888888889,-2.195
499677,2.9916666666666667,-2.19
499678,2.9944444444444445,-2.2
499679,2.9972222222222222,-2.195
499680,3.0,-2.225
499681,3.0027777777777778,-2.22
499682,3.0055555555555555,-2.245
499683,3.0083333333333333,-2.26
499684,3.011111111111111,-2.29
499685,3.013888888888889,-2.29
499686,3.0166666666666666,-2.29
499687,3.0194444444444444,-2.315
499688,3.022222222222222,-2.31
499689,3.025,-2.29
499690,3.0277777777777777,-2.295
499691,3.0305555555555554,-2.285
499692,3.033333333333333,-2.285
499693,3.036111111111111,-2.285
499694,3.0388888888888888,-2.305
499695,3.0416666666666665,-2.295
499696,3.0444444444444443,-2.305
499697,3.047222222222222,-2.295
499698,3.05,-2.305
499699,3.0527777777777776,-2.305
499700,3.0555555555555554,-2.315
499701,3.058333333333333,-2.295
499702,3.061111111111111,-2.28
499703,3.063888888888889,-2.275
499704,3.066666666666667,-2.275
499705,3.0694444444444446,-2.29
499706,3.0722222222222224,-2.295
499707,3.075,-2.3
499708,3.077777777777778,-2.32
499709,3.0805555555555557,-2.305
499710,3.0833333333333335,-2.305
499711,3.0861111111111112,-2.29
499712,3.088888888888889,-2.275
499713,3.091666666666667,-2.27
499714,3.0944444444444446,-2.26
499715,3.0972222222222223,-2.265
499716,3.1,-2.27
499717,3.102777777777778,-2.275
499718,3.1055555555555556,-2.29
499719,3.1083333333333334,-2.305
499720,3.111111111111111,-2.31
499721,3.113888888888889,-2.325
499722,3.1166666666666667,-2.33
499723,3.1194444444444445,-2.33
499724,3.1222222222222222,-2.315
499725,3.125,-2.31
499726,3.1277777777777778,-2.3
499727,3.1305555555555555,-2.305
499728,3.1333333333333333,-2.31
499729,3.136111111111111,-2.31
499730,3.138888888888889,-2.325
499731,3.1416666666666666,-2.34
499732,3.1444444444444444,-2.335
499733,3.147222222222222,-2.345
499734,3.15,-2.36
499735,3.1527777777777777,-2.35
499736,3.1555555555555554,-2.35
499737,3.158333333333333,-2.355
499738,3.161111111111111,-2.34
499739,3.1638888888888888,-2.35
499740,3.1666666666666665,-2.335
499741,3.1694444444444443,-2.33
499742,3.172222222222222,-2.345
499743,3.175,-2.345
499744,3.1777777777777776,-2.355
499745,3.1805555555555554,-2.37
499746,3.183333333333333,-2.375
499747,3.186111111111111,-2.37
499748,3.188888888888889,-2.375
499749,3.191666666666667,-2.355
499750,3.1944444444444446,-2.345
499751,3.1972222222222224,-2.335
499752,3.2,-2.34
499753,3.202777777777778,-2.345
499754,3.2055555555555557,-2.34
499755,3.2083333333333335,-2.35
499756,3.2111111111111112,-2.355
499757,3.213888888888889,-2.37
499758,3.216666666666667,-2.36
499759,3.2194444444444446,-2.355
499760,3.2222222222222223,-2.345
499761,3.225,-2.345
499762,3.227777777777778,-2.34
499763,3.2305555555555556,-2.32
499764,3.2333333333333334,-2.33
499765,3.236111111111111,-2.335
499766,3.238888888888889,-2.345
499767,3.2416666666666667,-2.34
499768,3.2444444444444445,-2.355
499769,3.2472222222222222,-2.355
499770,3.25,-2.36
499771,3.2527777777777778,-2.36
499772,3.2555555555555555,-2.35
499773,3.2583333333333333,-2.34
499774,3.261111111111111,-2.31
499775,3.263888888888889,-2.275
499776,3.2666666666666666,-2.275
499777,3.2694444444444444,-2.26
499778,3.272222222222222,-2.24
499779,3.275,-2.25
499780,3.2777777777777777,-2.24
499781,3.2805555555555554,-2.22
499782,3.283333333333333,-2.225
499783,3.286111111111111,-2.215
499784,3.2888888888888888,-2.2
499785,3.2916666666666665,-2.21
499786,3.2944444444444443,-2.21
499787,3.297222222222222,-2.2
499788,3.3,-2.175
499789,3.3027777777777776,-2.155
499790,3.3055555555555554,-2.155
499791,3.308333333333333,-2.145
499792,3.311111111111111,-2.14
499793,3.313888888888889,-2.16
499794,3.316666666666667,-2.17
499795,3.3194444444444446,-2.185
499796,3.3222222222222224,-2.195
499797,3.325,-2.205
499798,3.327777777777778,-2.19
499799,3.3305555555555557,-2.21
499800,3.3333333333333335,-2.195
499801,3.3361111111111112,-2.2
499802,3.338888888888889,-2.235
499803,3.341666666666667,-2.27
499804,3.3444444444444446,-2.3
499805,3.3472222222222223,-2.325
499806,3.35,-2.345
499807,3.352777777777778,-2.37
499808,3.3555555555555556,-2.375
499809,3.3583333333333334,-2.395
499810,3.361111111111111,-2.385
499811,3.363888888888889,-2.39
499812,3.3666666666666667,-2.38
499813,3.3694444444444445,-2.37
499814,3.3722222222222222,-2.375
499815,3.375,-2.375
499816,3.3777777777777778,-2.375
499817,3.3805555555555555,-2.385
499818,3.3833333333333333,-2.385
499819,3.386111111111111,-2.39
499820,3.388888888888889,-2.38
499821,3.3916666666666666,-2.365
499822,3.3944444444444444,-2.35
499823,3.397222222222222,-2.345
499824,3.4,-2.36
499825,3.4027777777777777,-2.345
499826,3.4055555555555554,-2.35
499827,3.408333333333333,-2.34
499828,3.411111111111111,-2.275
499829,3.4138888888888888,-2.155
499830,3.4166666666666665,-2.01
499831,3.4194444444444443,-1.825
499832,3.422222222222222,-1.6
499833,3.425,-1.365
499834,3.4277777777777776,-1.105
499835,3.4305555555555554,-0.835
499836,3.433333333333333,-0.52
499837,3.436111111111111,-0.2
499838,3.438888888888889,0.05
499839,3.441666666666667,0.24
499840,3.4444444444444446,0.27
499841,3.4472222222222224,0.06
499842,3.45,-0.445
499843,3.452777777777778,-1.085
499844,3.4555555555555557,-1.725
499845,3.4583333333333335,-2.365
499846,3.4611111111111112,-2.98
499847,3.463888888888889,-3.01
499848,3.466666666666667,-2.825
499849,3.4694444444444446,-2.55
499850,3.4722222222222223,-2.31
499851,3.475,-2.18
499852,3.477777777777778,-2.135
499853,3.4805555555555556,-2.185
499854,3.4833333333333334,-2.255
499855,3.486111111111111,-2.32
499856,3.488888888888889,-2.355
499857,3.4916666666666667,-2.355
499858,3.4944444444444445,-2.345
499859,3.4972222222222222,-2.325
499860,3.5,-2.33
499861,3.5027777777777778,-2.31
499862,3.5055555555555555,-2.325
499863,3.5083333333333333,-2.33
499864,3.511111111111111,-2.35
499865,3.513888888888889,-2.345
499866,3.5166666666666666,-2.36
499867,3.5194444444444444,-2.345
499868,3.522222222222222,-2.345
499869,3.525,-2.325
499870,3.5277777777777777,-2.305
499871,3.5305555555555554,-2.29
499872,3.533333333333333,-2.28
499873,3.536111111111111,-2.27
499874,3.5388888888888888,-2.27
499875,3.5416666666666665,-2.275
499876,3.5444444444444443,-2.28
499877,3.547222222222222,-2.275
499878,3.55,-2.285
499879,3.5527777777777776,-2.265
499880,3.5555555555555554,-2.265
499881,3.558333333333333,-2.25
499882,3.561111111111111,-2.23
499883,3.563888888888889,-2.22
499884,3.566666666666667,-2.21
499885,3.5694444444444446,-2.205
499886,3.5722222222222224,-2.215
499887,3.575,-2.205
499888,3.577777777777778,-2.22
499889,3.5805555555555557,-2.19
499890,3.5833333333333335,-2.195
499891,3.5861111111111112,-2.18
499892,3.588888888888889,-2.155
499893,3.591666666666667,-2.145
499894,3.5944444444444446,-2.125
499895,3.5972222222222223,-2.115
499896,3.6,-2.13
499897,3.602777777777778,-2.12
499898,3.6055555555555556,-2.125
499899,3.6083333333333334,-2.125
499900,3.611111111111111,-2.1
499901,3.613888888888889,-2.095
499902,3.6166666666666667,-2.085
499903,3.6194444444444445,-2.06
499904,3.6222222222222222,-2.035
499905,3.625,-2.025
499906,3.6277777777777778,-1.995
499907,3.6305555555555555,-1.975
499908,3.6333333333333333,-1.96
499909,3.636111111111111,-1.965
499910,3.638888888888889,-1.95
499911,3.6416666666666666,-1.955
499912,3.6444444444444444,-1.96
499913,3.647222222222222,-1.945
499914,3.65,-1.94
499915,3.6527777777777777,-1.935
499916,3.6555555555555554,-1.925
499917,3.658333333333333,-1.9
499918,3.661111111111111,-1.905
499919,3.6638888888888888,-1.89
499920,3.6666666666666665,-1.89
499921,3.6694444444444443,-1.88
499922,3.672222222222222,-1.91
499923,3.675,-1.895
499924,3.6777777777777776,-1.9
499925,3.6805555555555554,-1.9
499926,3.683333333333333,-1.91
499927,3.686111111111111,-1.92
499928,3.688888888888889,-1.925
499929,3.691666666666667,-1.94
499930,3.6944444444444446,-1.94
499931,3.6972222222222224,-1.95
499932,3.7,-1.975
499933,3.702777777777778,-1.99
499934,3.7055555555555557,-2.0
499935,3.7083333333333335,-2.045
499936,3.7111111111111112,-2.05
499937,3.713888888888889,-2.065
499938,3.716666666666667,-2.09
499939,3.7194444444444446,-2.1
499940,3.7222222222222223,-2.1
499941,3.725,-2.115
499942,3.727777777777778,-2.13
499943,3.7305555555555556,-2.135
499944,3.7333333333333334,-2.16
499945,3.736111111111111,-2.175
499946,3.738888888888889,-2.18
499947,3.7416666666666667,-2.195
499948,3.7444444444444445,-2.215
499949,3.7472222222222222,-2.215
499950,3.75,-2.235
499951,3.7527777777777778,-2.22
499952,3.7555555555555555,-2.215
499953,3.7583333333333333,-2.23
499954,3.761111111111111,-2.22
499955,3.763888888888889,-2.22
499956,3.7666666666666666,-2.215
499957,3.7694444444444444,-2.215
499958,3.772222222222222,-2.215
499959,3.775,-2.215
499960,3.7777777777777777,-2.225
499961,3.7805555555555554,-2.235
499962,3.783333333333333,-2.25
499963,3.786111111111111,-2.255
499964,3.7888888888888888,-2.245
499965,3.7916666666666665,-2.235
499966,3.7944444444444443,-2.225
499967,3.797222222222222,-2.195
499968,3.8,-2.21
499969,3.8027777777777776,-2.2
499970,3.8055555555555554,-2.225
499971,3.808333333333333,-2.225
499972,3.811111111111111,-2.235
499973,3.813888888888889,-2.235
499974,3.816666666666667,-2.245
499975,3.8194444444444446,-2.215
499976,3.8222222222222224,-2.215
499977,3.825,-2.19
499978,3.827777777777778,-2.19
499979,3.8305555555555557,-2.205
499980,3.8333333333333335,-2.215
499981,3.8361111111111112,-2.22
499982,3.838888888888889,-2.23
499983,3.841666666666667,-2.235
499984,3.8444444444444446,-2.235
499985,3.8472222222222223,-2.25
499986,3.85,-2.25
499987,3.852777777777778,-2.26
499988,3.8555555555555556,-2.245
499989,3.8583333333333334,-2.235
499990,3.861111111111111,-2.235
499991,3.863888888888889,-2.23
499992,3.8666666666666667,-2.225
499993,3.8694444444444445,-2.23
499994,3.8722222222222222,-2.255
499995,3.875,-2.275
499996,3.8777777777777778,-2.295
499997,3.8805555555555555,-2.275
499998,3.8833333333333333,-2.285
499999,3.886111111111111,-2.27
500000,3.888888888888889,-2.27
500001,3.8916666666666666,-2.275
500002,3.8944444444444444,-2.265
500003,3.897222222222222,-2.265
500004,3.9,-2.255
500005,3.9027777777777777,-2.25
500006,3.9055555555555554,-2.265
500007,3.908333333333333,-2.275
500008,3.911111111111111,-2.275
500009,3.9138888888888888,-2.29
500010,3.9166666666666665,-2.285
500011,3.9194444444444443,-2.275
500012,3.922222222222222,-2.275
500013,3.925,-2.265
500014,3.9277777777777776,-2.265
500015,3.9305555555555554,-2.27
500016,3.933333333333333,-2.275
500017,3.936111111111111,-2.28
500018,3.938888888888889,-2.285
500019,3.941666666666667,-2.295
500020,3.9444444444444446,-2.29
500021,3.9472222222222224,-2.29
500022,3.95,-2.29
500023,3.952777777777778,-2.29
500024,3.9555555555555557,-2.265
500025,3.9583333333333335,-2.26
500026,3.9611111111111112,-2.255
500027,3.963888888888889,-2.245
500028,3.966666666666667,-2.245
500029,3.9694444444444446,-2.25
500030,3.9722222222222223,-2.255
500031,3.975,-2.265
500032,3.977777777777778,-2.28
500033,3.9805555555555556,-2.28
500034,3.9833333333333334,-2.285
500035,3.986111111111111,-2.265
500036,3.988888888888889,-2.245
500037,3.9916666666666667,-2.21
500038,3.9944444444444445,-2.19
500039,3.9972222222222222,-2.17
500040,4.0,-2.165
500041,4.002777777777778,-2.155
500042,4.0055555555555555,-2.165
500043,4.008333333333334,-2.165
500044,4.011111111111111,-2.165
500045,4.013888888888889,-2.17
500046,4.016666666666667,-2.165
500047,4.019444444444445,-2.16
500048,4.022222222222222,-2.145
500049,4.025,-2.145
500050,4.027777777777778,-2.13
500051,4.030555555555556,-2.1
500052,4.033333333333333,-2.09
500053,4.036111111111111,-2.07
500054,4.038888888888889,-2.045
500055,4.041666666666667,-2.055
500056,4.044444444444444,-2.085
500057,4.0472222222222225,-2.09
500058,4.05,-2.125
500059,4.052777777777778,-2.125
500060,4.055555555555555,-2.125
500061,4.058333333333334,-2.13
500062,4.061111111111111,-2.135
500063,4.063888888888889,-2.125
500064,4.066666666666666,-2.12
500065,4.069444444444445,-2.145
500066,4.072222222222222,-2.155
500067,4.075,-2.18
500068,4.0777777777777775,-2.21
500069,4.080555555555556,-2.235
500070,4.083333333333333,-2.25
500071,4.086111111111111,-2.27
500072,4.088888888888889,-2.275
500073,4.091666666666667,-2.29
500074,4.094444444444444,-2.29
500075,4.097222222222222,-2.28
500076,4.1,-2.3
500077,4.102777777777778,-2.29
500078,4.105555555555555,-2.29
500079,4.108333333333333,-2.28
500080,4.111111111111111,-2.275
500081,4.113888888888889,-2.275
500082,4.116666666666666,-2.285
500083,4.1194444444444445,-2.29
500084,4.122222222222222,-2.285
500085,4.125,-2.275
500086,4.127777777777778,-2.265
500087,4.1305555555555555,-2.26
500088,4.133333333333334,-2.25
500089,4.136111111111111,-2.24
500090,4.138888888888889,-2.22
500091,4.141666666666667,-2.19
500092,4.144444444444445,-2.12
500093,4.147222222222222,-2.03
500094,4.15,-1.865
500095,4.152777777777778,-1.64
500096,4.155555555555556,-1.355
500097,4.158333333333333,-1.04
500098,4.161111111111111,-0.665
500099,4.163888888888889,-0.31
500100,4.166666666666667,0.045
500101,4.169444444444444,0.315
500102,4.1722222222222225,0.435
500103,4.175,0.345
500104,4.177777777777778,0.01
500105,4.180555555555555,-0.59
500106,4.183333333333334,-1.23
500107,4.186111111111111,-1.87
500108,4.188888888888889,-2.51
500109,4.191666666666666,-2.955
500110,4.194444444444445,-2.915
500111,4.197222222222222,-2.73
500112,4.2,-2.5
500113,4.2027777777777775,-2.285
500114,4.205555555555556,-2.15
500115,4.208333333333333,-2.11
500116,4.211111111111111,-2.13
500117,4.213888888888889,-2.155
500118,4.216666666666667,-2.19
500119,4.219444444444444,-2.22
500120,4.222222222222222,-2.225
500121,4.225,-2.25
500122,4.227777777777778,-2.21
500123,4.230555555555555,-2.2
500124,4.233333333333333,-2.19
500125,4.236111111111111,-2.18
500126,4.238888888888889,-2.18
500127,4.241666666666666,-2.205
500128,4.2444444444444445,-2.2
500129,4.247222222222222,-2.225
500130,4.25,-2.215
500131,4.252777777777778,-2.195
500132,4.2555555555555555,-2.17
500133,4.258333333333334,-2.165
500134,4.261111111111111,-2.145
500135,4.263888888888889,-2.12
500136,4.266666666666667,-2.115
500137,4.269444444444445,-2.11
500138,4.272222222222222,-2.125
500139,4.275,-2.14
500140,4.277777777777778,-2.12
500141,4.280555555555556,-2.115
500142,4.283333333333333,-2.12
500143,4.286111111111111,-2.1
500144,4.288888888888889,-2.075
500145,4.291666666666667,-2.075
500146,4.294444444444444,-2.06
500147,4.2972222222222225,-2.04
500148,4.3,-2.045
500149,4.302777777777778,-2.03
500150,4.305555555555555,-2.015
500151,4.308333333333334,-1.995
500152,4.311111111111111,-2.01
500153,4.313888888888889,-2.005
500154,4.316666666666666,-1.985
500155,4.319444444444445,-1.985
500156,4.322222222222222,-1.965
500157,4.325,-1.94
500158,4.3277777777777775,-1.935
500159,4.330555555555556,-1.91
500160,4.333333333333333,-1.905
500161,4.336111111111111,-1.89
500162,4.338888888888889,-1.89
500163,4.341666666666667,-1.88
500164,4.344444444444444,-1.885
500165,4.347222222222222,-1.865
500166,4.35,-1.85
500167,4.352777777777778,-1.835
500168,4.355555555555555,-1.79
500169,4.358333333333333,-1.765
500170,4.361111111111111,-1.76
500171,4.363888888888889,-1.73
500172,4.366666666666666,-1.71
500173,4.3694444444444445,-1.72
500174,4.372222222222222,-1.725
500175,4.375,-1.73
500176,4.377777777777778,-1.73
500177,4.3805555555555555,-1.715
500178,4.383333333333334,-1.715
500179,4.386111111111111,-1.715
500180,4.388888888888889,-1.695
500181,4.391666666666667,-1.68
500182,4.394444444444445,-1.67
500183,4.397222222222222,-1.665
500184,4.4,-1.685
500185,4.402777777777778,-1.69
500186,4.405555555555556,-1.7
500187,4.408333333333333,-1.725
500188,4.411111111111111,-1.75
500189,4.413888888888889,-1.775
500190,4.416666666666667,-1.775
500191,4.419444444444444,-1.77
500192,4.4222222222222225,-1.78
500193,4.425,-1.785
500194,4.427777777777778,-1.775
500195,4.430555555555555,-1.78
500196,4.433333333333334,-1.78
500197,4.436111111111111,-1.785
500198,4.438888888888889,-1.8
500199,4.441666666666666,-1.83
500200,4.444444444444445,-1.85
500201,4.447222222222222,-1.875
500202,4.45,-1.895
500203,4.4527777777777775,-1.905
500204,4.455555555555556,-1.92
500205,4.458333333333333,-1.925
500206,4.461111111111111,-1.935
500207,4.463888888888889,-1.915
500208,4.466666666666667,-1.915
500209,4.469444444444444,-1.915
500210,4.472222222222222,-1.92
500211,4.475,-1.945
500212,4.477777777777778,-1.95
500213,4.480555555555555,-1.935
500214,4.483333333333333,-1.95
500215,4.486111111111111,-1.97
500216,4.488888888888889,-1.94
500217,4.491666666666666,-1.95
500218,4.4944444444444445,-1.935
500219,4.497222222222222,-1.93
500220,4.5,-1.93
500221,4.502777777777778,-1.92
500222,4.5055555555555555,-1.93
500223,4.508333333333334,-1.915
500224,4.511111111111111,-1.925
500225,4.513888888888889,-1.92
500226,4.516666666666667,-1.915
500227,4.519444444444445,-1.915
500228,4.522222222222222,-1.91
500229,4.525,-1.91
500230,4.527777777777778,-1.91
500231,4.530555555555556,-1.91
500232,4.533333333333333,-1.92
500233,4.536111111111111,-1.925
500234,4.538888888888889,-1.93
500235,4.541666666666667,-1.94
500236,4.544444444444444,-1.95
500237,4.5472222222222225,-1.945
500238,4.55,-1.93
500239,4.552777777777778,-1.935
500240,4.555555555555555,-1.915
500241,4.558333333333334,-1.895
500242,4.561111111111111,-1.885
500243,4.563888888888889,-1.885
500244,4.566666666666666,-1.885
500245,4.569444444444445,-1.885
500246,4.572222222222222,-1.9
500247,4.575,-1.91
500248,4.5777777777777775,-1.92
500249,4.580555555555556,-1.95
500250,4.583333333333333,-1.94
500251,4.586111111111111,-1.95
500252,4.588888888888889,-1.935
500253,4.591666666666667,-1.925
500254,4.594444444444444,-1.925
500255,4.597222222222222,-1.915
500256,4.6,-1.915
500257,4.602777777777778,-1.925
500258,4.605555555555555,-1.935
500259,4.608333333333333,-1.945
500260,4.611111111111111,-1.955
500261,4.613888888888889,-1.96
500262,4.616666666666666,-1.95
500263,4.6194444444444445,-1.95
500264,4.622222222222222,-1.95
500265,4.625,-1.94
500266,4.627777777777778,-1.95
500267,4.6305555555555555,-1.945
500268,4.633333333333334,-1.965
500269,4.636111111111111,-1.955
500270,4.638888888888889,-1.97
500271,4.641666666666667,-1.98
500272,4.644444444444445,-1.975
500273,4.647222222222222,-1.975
500274,4.65,-1.99
500275,4.652777777777778,-1.98
500276,4.655555555555556,-1.97
500277,4.658333333333333,-1.96
500278,4.661111111111111,-1.94
500279,4.663888888888889,-1.93
500280,4.666666666666667,-1.93
500281,4.669444444444444,-1.95
500282,4.6722222222222225,-1.965
500283,4.675,-1.96
500284,4.677777777777778,-1.965
500285,4.680555555555555,-1.955
500286,4.683333333333334,-1.97
500287,4.686111111111111,-1.96
500288,4.688888888888889,-1.955
500289,4.691666666666666,-1.95
500290,4.694444444444445,-1.95
500291,4.697222222222222,-1.935
500292,4.7,-1.925
500293,4.7027777777777775,-1.91
500294,4.705555555555556,-1.895
500295,4.708333333333333,-1.895
500296,4.711111111111111,-1.885
500297,4.713888888888889,-1.87
500298,4.716666666666667,-1.885
500299,4.719444444444444,-1.865
500300,4.722222222222222,-1.84
500301,4.725,-1.825
500302,4.727777777777778,-1.81
500303,4.730555555555555,-1.805
500304,4.733333333333333,-1.81
500305,4.736111111111111,-1.815
500306,4.738888888888889,-1.84
500307,4.741666666666666,-1.83
500308,4.7444444444444445,-1.825
500309,4.747222222222222,-1.81
500310,4.75,-1.785
500311,4.752777777777778,-1.755
500312,4.7555555555555555,-1.74
500313,4.758333333333334,-1.73
500314,4.761111111111111,-1.72
500315,4.763888888888889,-1.715
500316,4.766666666666667,-1.735
500317,4.769444444444445,-1.74
500318,4.772222222222222,-1.75
500319,4.775,-1.785
500320,4.777777777777778,-1.8
500321,4.780555555555556,-1.795
500322,4.783333333333333,-1.805
500323,4.786111111111111,-1.81
500324,4.788888888888889,-1.81
500325,4.791666666666667,-1.82
500326,4.794444444444444,-1.83
500327,4.7972222222222225,-1.83
500328,4.8,-1.85
500329,4.802777777777778,-1.87
500330,4.805555555555555,-1.92
500331,4.808333333333334,-1.94
500332,4.811111111111111,-1.96
500333,4.813888888888889,-1.965
500334,4.816666666666666,-1.97
500335,4.819444444444445,-1.96
500336,4.822222222222222,-1.965
500337,4.825,-1.95
500338,4.8277777777777775,-1.935
500339,4.830555555555556,-1.93
500340,4.833333333333333,-1.94
500341,4.836111111111111,-1.93
500342,4.838888888888889,-1.945
500343,4.841666666666667,-1.945
500344,4.844444444444444,-1.96
500345,4.847222222222222,-1.96
500346,4.85,-1.95
500347,4.852777777777778,-1.935
500348,4.855555555555555,-1.93
500349,4.858333333333333,-1.915
500350,4.861111111111111,-1.93
500351,4.863888888888889,-1.905
500352,4.866666666666666,-1.885
500353,4.8694444444444445,-1.865
500354,4.872222222222222,-1.8
500355,4.875,-1.705
500356,4.877777777777778,-1.58
500357,4.8805555555555555,-1.405
500358,4.883333333333334,-1.205
500359,4.886111111111111,-0.955
500360,4.888888888888889,-0.7
500361,4.891666666666667,-0.42
500362,4.894444444444445,-0.125
500363,4.897222222222222,0.205
500364,4.9,0.47
500365,4.902777777777778,0.675
500366,4.905555555555556,0.765
500367,4.908333333333333,0.69
500368,4.911111111111111,0.37
500369,4.913888888888889,-0.2
500370,4.916666666666667,-0.84
500371,4.919444444444444,-1.48
500372,4.9222222222222225,-2.12
500373,4.925,-2.565
500374,4.927777777777778,-2.515
500375,4.930555555555555,-2.28
500376,4.933333333333334,-2.0
500377,4.936111111111111,-1.795
500378,4.938888888888889,-1.66
500379,4.941666666666666,-1.675
500380,4.944444444444445,-1.72
500381,4.947222222222222,-1.805
500382,4.95,-1.87
500383,4.9527777777777775,-1.885
500384,4.955555555555556,-1.885
500385,4.958333333333333,-1.875
500386,4.961111111111111,-1.85
500387,4.963888888888889,-1.845
500388,4.966666666666667,-1.835
500389,4.969444444444444,-1.84
500390,4.972222222222222,-1.875
500391,4.975,-1.875
500392,4.977777777777778,-1.865
500393,4.980555555555555,-1.875
500394,4.983333333333333,-1.885
500395,4.986111111111111,-1.865
500396,4.988888888888889,-1.855
500397,4.991666666666666,-1.835
500398,4.9944444444444445,-1.83
500399,4.997222222222222,-1.81
500400,5.0,-1.795
500401,5.002777777777778,-1.795
500402,5.0055555555555555,-1.81
500403,5.008333333333334,-1.8
500404,5.011111111111111,-1.805
500405,5.013888888888889,-1.81
500406,5.016666666666667,-1.805
500407,5.019444444444445,-1.795
500408,5.022222222222222,-1.77
500409,5.025,-1.76
500410,5.027777777777778,-1.755
500411,5.030555555555556,-1.735
500412,5.033333333333333,-1.735
500413,5.036111111111111,-1.73
500414,5.038888888888889,-1.73
500415,5.041666666666667,-1.72
500416,5.044444444444444,-1.725
500417,5.0472222222222225,-1.72
500418,5.05,-1.715
500419,5.052777777777778,-1.715
500420,5.055555555555555,-1.71
500421,5.058333333333334,-1.685
500422,5.061111111111111,-1.655
500423,5.063888888888889,-1.635
500424,5.066666666666666,-1.62
500425,5.069444444444445,-1.62
500426,5.072222222222222,-1.615
500427,5.075,-1.595
500428,5.0777777777777775,-1.605
500429,5.080555555555556,-1.6
500430,5.083333333333333,-1.605
500431,5.086111111111111,-1.57
500432,5.088888888888889,-1.54
500433,5.091666666666667,-1.535
500434,5.094444444444444,-1.51
500435,5.097222222222222,-1.475
500436,5.1,-1.465
500437,5.102777777777778,-1.45
500438,5.105555555555555,-1.44
500439,5.108333333333333,-1.43
500440,5.111111111111111,-1.44
500441,5.113888888888889,-1.43
500442,5.116666666666666,-1.435
500443,5.1194444444444445,-1.425
500444,5.122222222222222,-1.405
500445,5.125,-1.39
500446,5.127777777777778,-1.38
500447,5.1305555555555555,-1.365
500448,5.133333333333334,-1.38
500449,5.136111111111111,-1.385
500450,5.138888888888889,-1.405
500451,5.141666666666667,-1.425
500452,5.144444444444445,-1.45
500453,5.147222222222222,-1.425
500454,5.15,-1.44
500455,5.152777777777778,-1.455
500456,5.155555555555556,-1.46
500457,5.158333333333333,-1.46
500458,5.161111111111111,-1.47
500459,5.163888888888889,-1.46
500460,5.166666666666667,-1.49
500461,5.169444444444444,-1.51
500462,5.1722222222222225,-1.53
500463,5.175,-1.565
500464,5.177777777777778,-1.575
500465,5.180555555555555,-1.6
500466,5.183333333333334,-1.615
500467,5.186111111111111,-1.65
500468,5.188888888888889,-1.66
500469,5.191666666666666,-1.675
500470,5.194444444444445,-1.655
500471,5.197222222222222,-1.665
500472,5.2,-1.67
500473,5.2027777777777775,-1.675
500474,5.205555555555556,-1.68
500475,5.208333333333333,-1.685
500476,5.211111111111111,-1.69
500477,5.213888888888889,-1.69
500478,5.216666666666667,-1.705
500479,5.219444444444444,-1.705
500480,5.222222222222222,-1.7
500481,5.225,-1.695
500482,5.227777777777778,-1.69
500483,5.230555555555555,-1.69
500484,5.233333333333333,-1.68
500485,5.236111111111111,-1.685
500486,5.238888888888889,-1.685
500487,5.241666666666666,-1.695
500488,5.2444444444444445,-1.705
500489,5.247222222222222,-1.705
500490,5.25,-1.705
500491,5.252777777777778,-1.7
500492,5.2555555555555555,-1.705
500493,5.258333333333334,-1.69
500494,5.261111111111111,-1.685
500495,5.263888888888889,-1.66
500496,5.266666666666667,-1.665
500497,5.269444444444445,-1.675
500498,5.272222222222222,-1.675
500499,5.275,-1.685
500500,5.277777777777778,-1.685
500501,5.280555555555556,-1.69
500502,5.283333333333333,-1.7
500503,5.286111111111111,-1.695
500504,5.288888888888889,-1.71
500505,5.291666666666667,-1.7
500506,5.294444444444444,-1.7
500507,5.2972222222222225,-1.685
500508,5.3,-1.705
500509,5.302777777777778,-1.7
500510,5.305555555555555,-1.705
500511,5.308333333333334,-1.71
500512,5.311111111111111,-1.73
500513,5.313888888888889,-1.73
500514,5.316666666666666,-1.745
500515,5.319444444444445,-1.75
500516,5.322222222222222,-1.745
500517,5.325,-1.765
500518,5.3277777777777775,-1.73
500519,5.330555555555556,-1.72
500520,5.333333333333333,-1.725
500521,5.336111111111111,-1.735
500522,5.338888888888889,-1.76
500523,5.341666666666667,-1.78
500524,5.344444444444444,-1.775
500525,5.347222222222222,-1.785
500526,5.35,-1.78
500527,5.352777777777778,-1.765
500528,5.355555555555555,-1.77
500529,5.358333333333333,-1.77
500530,5.361111111111111,-1.755
500531,5.363888888888889,-1.755
500532,5.366666666666666,-1.755
500533,5.3694444444444445,-1.755
500534,5.372222222222222,-1.775
500535,5.375,-1.77
500536,5.377777777777778,-1.79
500537,5.3805555555555555,-1.805
500538,5.383333333333334,-1.805
500539,5.386111111111111,-1.8
500540,5.388888888888889,-1.8
500541,5.391666666666667,-1.79
500542,5.394444444444445,-1.77
500543,5.397222222222222,-1.765
500544,5.4,-1.76
500545,5.402777777777778,-1.765
500546,5.405555555555556,-1.78
500547,5.408333333333333,-1.78
500548,5.411111111111111,-1.79
500549,5.413888888888889,-1.79
500550,5.416666666666667,-1.795
500551,5.419444444444444,-1.8
500552,5.4222222222222225,-1.785
500553,5.425,-1.795
500554,5.427777777777778,-1.785
500555,5.430555555555555,-1.775
500556,5.433333333333334,-1.785
500557,5.436111111111111,-1.77
500558,5.438888888888889,-1.785
500559,5.441666666666666,-1.78
500560,5.444444444444445,-1.77
500561,5.447222222222222,-1.765
500562,5.45,-1.735
500563,5.4527777777777775,-1.715
500564,5.455555555555556,-1.695
500565,5.458333333333333,-1.69
500566,5.461111111111111,-1.67
500567,5.463888888888889,-1.66
500568,5.466666666666667,-1.68
500569,5.469444444444444,-1.69
500570,5.472222222222222,-1.69
500571,5.475,-1.7
500572,5.477777777777778,-1.69
500573,5.480555555555555,-1.68
500574,5.483333333333333,-1.66
500575,5.486111111111111,-1.645
500576,5.488888888888889,-1.635
500577,5.491666666666666,-1.615
500578,5.4944444444444445,-1.62
500579,5.497222222222222,-1.615
500580,5.5,-1.625
500581,5.502777777777778,-1.635
500582,5.5055555555555555,-1.645
500583,5.508333333333334,-1.665
500584,5.511111111111111,-1.7
500585,5.513888888888889,-1.71
500586,5.516666666666667,-1.72
500587,5.519444444444445,-1.735
500588,5.522222222222222,-1.745
500589,5.525,-1.745
500590,5.527777777777778,-1.77
500591,5.530555555555556,-1.785
500592,5.533333333333333,-1.79
500593,5.536111111111111,-1.82
500594,5.538888888888889,-1.845
500595,5.541666666666667,-1.865
500596,5.544444444444444,-1.895
500597,5.5472222222222225,-1.905
500598,5.55,-1.915
500599,5.552777777777778,-1.92
500600,5.555555555555555,-1.91
500601,5.558333333333334,-1.9
500602,5.561111111111111,-1.895
500603,5.563888888888889,-1.895
500604,5.566666666666666,-1.91
500605,5.569444444444445,-1.91
500606,5.572222222222222,-1.92
500607,5.575,-1.91
500608,5.5777777777777775,-1.91
500609,5.580555555555556,-1.915
500610,5.583333333333333,-1.92
500611,5.586111111111111,-1.925
500612,5.588888888888889,-1.915
500613,5.591666666666667,-1.9
500614,5.594444444444444,-1.845
500615,5.597222222222222,-1.79
500616,5.6,-1.695
500617,5.602777777777778,-1.595
500618,5.605555555555555,-1.44
500619,5.608333333333333,-1.25
500620,5.611111111111111,-1.045
500621,5.613888888888889,-0.78
500622,5.616666666666666,-0.47
500623,5.6194444444444445,-0.12
500624,5.622222222222222,0.26
500625,5.625,0.615
500626,5.627777777777778,0.855
500627,5.6305555555555555,0.93
500628,5.633333333333334,0.715
500629,5.636111111111111,0.225
500630,5.638888888888889,-0.415
500631,5.641666666666667,-1.055
500632,5.644444444444445,-1.695
500633,5.647222222222222,-2.335
500634,5.65,-2.59
500635,5.652777777777778,-2.43
500636,5.655555555555556,-2.18
500637,5.658333333333333,-1.9
500638,5.661111111111111,-1.76
500639,5.663888888888889,-1.68
500640,5.666666666666667,-1.705
500641,5.669444444444444,-1.775
500642,5.6722222222222225,-1.87
500643,5.675,-1.94
500644,5.677777777777778,-1.985
500645,5.680555555555555,-1.99
500646,5.683333333333334,-1.99
500647,5.686111111111111,-1.985
500648,5.688888888888889,-1.965
500649,5.691666666666666,-1.965
500650,5.694444444444445,-1.97
500651,5.697222222222222,-1.955
500652,5.7,-1.965
500653,5.7027777777777775,-1.98
500654,5.705555555555556,-1.98
500655,5.708333333333333,-1.985
500656,5.711111111111111,-2.0
500657,5.713888888888889,-2.005
500658,5.716666666666667,-2.015
500659,5.719444444444444,-2.01
500660,5.722222222222222,-2.025
500661,5.725,-2.0
500662,5.727777777777778,-1.995
500663,5.730555555555555,-2.005
500664,5.733333333333333,-2.025
500665,5.736111111111111,-2.065
500666,5.738888888888889,-2.125
500667,5.741666666666666,-2.205
500668,5.7444444444444445,-2.385
500669,5.747222222222222,-2.745
500670,5.75,-3.32
500671,5.752777777777778,-3.96
500672,5.7555555555555555,-4.6
500673,5.758333333333334,-5.12
500674,5.761111111111111,-5.12
500675,5.763888888888889,-5.12
500676,5.766666666666667,-5.12
500677,5.769444444444445,-5.12
500678,5.772222222222222,-5.12
500679,5.775,-5.12
500680,5.777777777777778,-5.12
500681,5.780555555555556,-5.12
500682,5.783333333333333,-5.12
500683,5.786111111111111,-5.12
500684,5.788888888888889,-5.12
500685,5.791666666666667,-5.12
500686,5.794444444444444,-5.12
500687,5.7972222222222225,-5.12
500688,5.8,-5.12
500689,5.802777777777778,-5.12
500690,5.805555555555555,-5.12
500691,5.808333333333334,-5.12
500692,5.811111111111111,-5.12
500693,5.813888888888889,-5.12
500694,5.816666666666666,-5.12
500695,5.819444444444445,-5.12
500696,5.822222222222222,-5.12
500697,5.825,-5.12
500698,5.8277777777777775,-5.12
500699,5.830555555555556,-5.12
500700,5.833333333333333,-5.12
500701,5.836111111111111,-5.12
500702,5.838888888888889,-5.12
500703,5.841666666666667,-5.12
500704,5.844444444444444,-5.12
500705,5.847222222222222,-5.12
500706,5.85,-5.12
500707,5.852777777777778,-5.12
500708,5.855555555555555,-5.12
500709,5.858333333333333,-5.12
500710,5.861111111111111,-5.12
500711,5.863888888888889,-5.12
500712,5.866666666666666,-5.12
500713,5.8694444444444445,-5.12
500714,5.872222222222222,-5.12
500715,5.875,-5.12
500716,5.877777777777778,-5.12
500717,5.8805555555555555,-5.12
500718,5.883333333333334,-5.12
500719,5.886111111111111,-5.12
500720,5.888888888888889,-5.12
500721,5.891666666666667,-5.12
500722,5.894444444444445,-5.12
500723,5.897222222222222,-5.12
500724,5.9,-5.12
500725,5.902777777777778,-5.12
500726,5.905555555555556,-5.12
500727,5.908333333333333,-5.12
500728,5.911111111111111,-5.12
500729,5.913888888888889,-5.12
500730,5.916666666666667,-5.12
500731,5.919444444444444,-5.12
500732,5.9222222222222225,-5.12
500733,5.925,-5.12
500734,5.927777777777778,-5.12
500735,5.930555555555555,-5.12
500736,5.933333333333334,-5.12
500737,5.936111111111111,-5.12
500738,5.938888888888889,-5.12
500739,5.941666666666666,-5.12
500740,5.944444444444445,-5.12
500741,5.947222222222222,-5.12
500742,5.95,-5.12
500743,5.9527777777777775,-5.12
500744,5.955555555555556,-5.12
500745,5.958333333333333,-5.12
500746,5.961111111111111,-5.12
500747,5.963888888888889,-5.12
500748,5.966666666666667,-5.12
500749,5.969444444444444,-5.12
500750,5.972222222222222,-5.12
500751,5.975,-5.12
500752,5.977777777777778,-5.12
500753,5.980555555555555,-5.12
500754,5.983333333333333,-5.12
500755,5.986111111111111,-5.12
500756,5.988888888888889,-5.12
500757,5.991666666666666,-5.12
500758,5.9944444444444445,-5.12
500759,5.997222222222222,-5.12
500760,6.0,-5.12
500761,6.002777777777778,-5.12
500762,6.0055555555555555,-5.12
500763,6.008333333333334,-5.12
500764,6.011111111111111,-5.12
500765,6.013888888888889,-5.12
500766,6.016666666666667,-5.12
500767,6.019444444444445,-5.12
500768,6.022222222222222,-5.12
500769,6.025,-5.12
500770,6.027777777777778,-5.12
500771,6.030555555555556,-5.12
500772,6.033333333333333,-5.12
500773,6.036111111111111,-5.12
500774,6.038888888888889,-5.12
500775,6.041666666666667,-5.12
500776,6.044444444444444,-5.12
500777,6.0472222222222225,-5.12
500778,6.05,-5.12
500779,6.052777777777778,-5.12
500780,6.055555555555555,-5.12
500781,6.058333333333334,-5.12
500782,6.061111111111111,-5.12
500783,6.063888888888889,-5.12
500784,6.066666666666666,-5.12
500785,6.069444444444445,-5.12
500786,6.072222222222222,-5.12
500787,6.075,-5.12
500788,6.0777777777777775,-5.12
500789,6.080555555555556,-5.12
500790,6.083333333333333,-5.12
500791,6.086111111111111,-5.12
500792,6.088888888888889,-5.12
500793,6.091666666666667,-5.12
500794,6.094444444444444,-5.12
500795,6.097222222222222,-5.12
500796,6.1,-5.12
500797,6.102777777777778,-5.12
500798,6.105555555555555,-5.12
500799,6.108333333333333,-5.12
500800,6.111111111111111,-5.12
500801,6.113888888888889,-5.12
500802,6.116666666666666,-5.12
500803,6.1194444444444445,-5.12
500804,6.122222222222222,-5.12
500805,6.125,-5.12
500806,6.127777777777778,-5.12
500807,6.1305555555555555,-5.12
500808,6.133333333333334,-5.12
500809,6.136111111111111,-5.12
500810,6.138888888888889,-5.12
500811,6.141666666666667,-5.12
500812,6.144444444444445,-5.12
500813,6.147222222222222,-5.12
500814,6.15,-5.12
500815,6.152777777777778,-5.12
500816,6.155555555555556,-5.12
500817,6.158333333333333,-5.12
500818,6.161111111111111,-5.12
500819,6.163888888888889,-5.12
500820,6.166666666666667,-5.12
500821,6.169444444444444,-5.12
500822,6.1722222222222225,-5.12
500823,6.175,-5.12
500824,6.177777777777778,-5.12
500825,6.180555555555555,-5.12
500826,6.183333333333334,-5.12
500827,6.186111111111111,-5.12
500828,6.188888888888889,-5.12
500829,6.191666666666666,-5.12
500830,6.194444444444445,-5.12
500831,6.197222222222222,-5.12
500832,6.2,-5.12
500833,6.2027777777777775,-5.12
500834,6.205555555555556,-5.12
500835,6.208333333333333,-5.12
500836,6.211111111111111,-5.12
500837,6.213888888888889,-5.12
500838,6.216666666666667,-5.12
500839,6.219444444444444,-5.12
500840,6.222222222222222,-5.12
500841,6.225,-5.12
500842,6.227777777777778,-5.12
500843,6.230555555555555,-5.12
500844,6.233333333333333,-5.12
500845,6.236111111111111,-5.12
500846,6.238888888888889,-5.12
500847,6.241666666666666,-5.12
500848,6.2444444444444445,-5.12
500849,6.247222222222222,-5.12
500850,6.25,-5.12
500851,6.252777777777778,-5.12
500852,6.2555555555555555,-5.12
500853,6.258333333333334,-5.12
500854,6.261111111111111,-5.12
500855,6.263888888888889,-5.12
500856,6.266666666666667,-5.12
500857,6.269444444444445,-5.12
500858,6.272222222222222,-5.12
500859,6.275,-5.12
500860,6.277777777777778,-5.12
500861,6.280555555555556,-5.12
500862,6.283333333333333,-5.12
500863,6.286111111111111,-5.12
500864,6.288888888888889,-5.12
500865,6.291666666666667,-5.12
500866,6.294444444444444,-5.12
500867,6.2972222222222225,-5.12
500868,6.3,-5.12
500869,6.302777777777778,-5.12
500870,6.305555555555555,-5.12
500871,6.308333333333334,-5.12
500872,6.311111111111111,-5.12
500873,6.313888888888889,-5.12
500874,6.316666666666666,-5.12
500875,6.319444444444445,-5.12
500876,6.322222222222222,-5.12
500877,6.325,-5.12
500878,6.3277777777777775,-5.12
500879,6.330555555555556,-5.12
500880,6.333333333333333,-5.12
500881,6.336111111111111,-5.12
500882,6.338888888888889,-5.12
500883,6.341666666666667,-5.12
500884,6.344444444444444,-5.12
500885,6.347222222222222,-5.12
500886,6.35,-5.12
500887,6.352777777777778,-5.12
500888,6.355555555555555,-5.12
500889,6.358333333333333,-5.12
500890,6.361111111111111,-5.12
500891,6.363888888888889,-5.12
500892,6.366666666666666,-5.12
500893,6.3694444444444445,-5.12
500894,6.372222222222222,-5.12
500895,6.375,-5.12
500896,6.377777777777778,-5.12
500897,6.3805555555555555,-5.12
500898,6.383333333333334,-5.12
500899,6.386111111111111,-5.12
500900,6.388888888888889,-5.12
500901,6.391666666666667,-5.12
500902,6.394444444444445,-5.12
500903,6.397222222222222,-5.12
500904,6.4,-5.12
500905,6.402777777777778,-5.12
500906,6.405555555555556,-5.12
500907,6.408333333333333,-5.12
500908,6.411111111111111,-5.12
500909,6.413888888888889,-5.12
500910,6.416666666666667,-5.12
500911,6.419444444444444,-5.12
500912,6.4222222222222225,-5.12
500913,6.425,-5.12
500914,6.427777777777778,-5.12
500915,6.430555555555555,-5.12
500916,6.433333333333334,-5.12
500917,6.436111111111111,-5.12
500918,6.438888888888889,-5.12
500919,6.441666666666666,-5.12
500920,6.444444444444445,-5.12
500921,6.447222222222222,-5.12
500922,6.45,-5.12
500923,6.4527777777777775,-5.12
500924,6.455555555555556,-5.12
500925,6.458333333333333,-5.12
500926,6.461111111111111,-5.12
500927,6.463888888888889,-5.105
500928,6.466666666666667,-5.1
500929,6.469444444444444,-5.095
500930,6.472222222222222,-5.105
500931,6.475,-5.12
500932,6.477777777777778,-5.115
500933,6.480555555555555,-5.11
500934,6.483333333333333,-5.12
500935,6.486111111111111,-5.11
500936,6.488888888888889,-5.1
500937,6.491666666666666,-5.105
500938,6.4944444444444445,-5.08
500939,6.497222222222222,-5.06
500940,6.5,-5.06
500941,6.502777777777778,-5.05
500942,6.5055555555555555,-5.035
500943,6.508333333333334,-5.05
500944,6.511111111111111,-5.045
500945,6.513888888888889,-5.06
500946,6.516666666666667,-5.06
500947,6.519444444444445,-5.055
500948,6.522222222222222,-5.045
500949,6.525,-5.03
500950,6.527777777777778,-5.015
500951,6.530555555555556,-4.99
500952,6.533333333333333,-4.975
500953,6.536111111111111,-4.98
500954,6.538888888888889,-4.995
500955,6.541666666666667,-4.995
500956,6.544444444444444,-4.995
500957,6.5472222222222225,-5.0
500958,6.55,-4.99
500959,6.552777777777778,-4.985
500960,6.555555555555555,-4.965
500961,6.558333333333334,-4.95
500962,6.561111111111111,-4.935
500963,6.563888888888889,-4.935
500964,6.566666666666666,-4.92
500965,6.569444444444445,-4.91
500966,6.572222222222222,-4.905
500967,6.575,-4.91
500968,6.5777777777777775,-4.92
500969,6.580555555555556,-4.915
500970,6.583333333333333,-4.915
500971,6.586111111111111,-4.915
500972,6.588888888888889,-4.92
500973,6.591666666666667,-4.915
500974,6.594444444444444,-4.905
500975,6.597222222222222,-4.885
500976,6.6,-4.86
500977,6.602777777777778,-4.855
500978,6.605555555555555,-4.86
500979,6.608333333333333,-4.865
500980,6.611111111111111,-4.885
500981,6.613888888888889,-4.87
500982,6.616666666666666,-4.865
500983,6.6194444444444445,-4.875
500984,6.622222222222222,-4.865
500985,6.625,-4.84
500986,6.627777777777778,-4.835
500987,6.6305555555555555,-4.83
500988,6.633333333333334,-4.825
500989,6.636111111111111,-4.815
500990,6.638888888888889,-4.82
500991,6.641666666666667,-4.83
500992,6.644444444444445,-4.85
500993,6.647222222222222,-4.845
500994,6.65,-4.84
500995,6.652777777777778,-4.84
500996,6.655555555555556,-4.815
500997,6.658333333333333,-4.815
500998,6.661111111111111,-4.795
500999,6.663888888888889,-4.77
501000,6.666666666666667,-4.775
501001,6.669444444444444,-4.77
501002,6.6722222222222225,-4.78
501003,6.675,-4.78
501004,6.677777777777778,-4.775
501005,6.680555555555555,-4.785
501006,6.683333333333334,-4.785
501007,6.686111111111111,-4.78
501008,6.688888888888889,-4.77
501009,6.691666666666666,-4.76
501010,6.694444444444445,-4.745
501011,6.697222222222222,-4.715
501012,6.7,-4.72
501013,6.7027777777777775,-4.705
501014,6.705555555555556,-4.725
501015,6.708333333333333,-4.72
501016,6.711111111111111,-4.725
501017,6.713888888888889,-4.735
501018,6.716666666666667,-4.73
501019,6.719444444444444,-4.73
501020,6.722222222222222,-4.725
501021,6.725,-4.715
501022,6.727777777777778,-4.71
501023,6.730555555555555,-4.685
501024,6.733333333333333,-4.68
501025,6.736111111111111,-4.675
501026,6.738888888888889,-4.685
501027,6.741666666666666,-4.695
501028,6.7444444444444445,-4.69
501029,6.747222222222222,-4.68
501030,6.75,-4.68
501031,6.752777777777778,-4.675
501032,6.7555555555555555,-4.68
501033,6.758333333333334,-4.65
501034,6.761111111111111,-4.635
501035,6.763888888888889,-4.62
501036,6.766666666666667,-4.625
501037,6.769444444444445,-4.605
501038,6.772222222222222,-4.62
501039,6.775,-4.625
501040,6.777777777777778,-4.625
501041,6.780555555555556,-4.625
501042,6.783333333333333,-4.62
501043,6.786111111111111,-4.625
501044,6.788888888888889,-4.6
501045,6.791666666666667,-4.58
501046,6.794444444444444,-4.565
501047,6.7972222222222225,-4.57
501048,6.8,-4.545
501049,6.802777777777778,-4.565
501050,6.805555555555555,-4.575
501051,6.808333333333334,-4.575
501052,6.811111111111111,-4.58
501053,6.813888888888889,-4.575
501054,6.816666666666666,-4.565
501055,6.819444444444445,-4.575
501056,6.822222222222222,-4.56
501057,6.825,-4.54
501058,6.8277777777777775,-4.52
501059,6.830555555555556,-4.5
501060,6.833333333333333,-4.49
501061,6.836111111111111,-4.49
501062,6.838888888888889,-4.49
501063,6.841666666666667,-4.505
501064,6.844444444444444,-4.51
501065,6.847222222222222,-4.52
501066,6.85,-4.51
501067,6.852777777777778,-4.51
501068,6.855555555555555,-4.49
501069,6.858333333333333,-4.49
501070,6.861111111111111,-4.47
501071,6.863888888888889,-4.435
501072,6.866666666666666,-4.43
501073,6.8694444444444445,-4.435
501074,6.872222222222222,-4.43
501075,6.875,-4.43
501076,6.877777777777778,-4.43
501077,6.8805555555555555,-4.435
501078,6.883333333333334,-4.43
501079,6.886111111111111,-4.425
501080,6.888888888888889,-4.415
501081,6.891666666666667,-4.4
501082,6.894444444444445,-4.385
501083,6.897222222222222,-4.375
501084,6.9,-4.385
501085,6.902777777777778,-4.39
501086,6.905555555555556,-4.385
501087,6.908333333333333,-4.38
501088,6.911111111111111,-4.405
501089,6.913888888888889,-4.39
501090,6.916666666666667,-4.395
501091,6.919444444444444,-4.385
501092,6.9222222222222225,-4.375
501093,6.925,-4.35
501094,6.927777777777778,-4.345
501095,6.930555555555555,-4.32
501096,6.933333333333334,-4.315
501097,6.936111111111111,-4.305
501098,6.938888888888889,-4.315
501099,6.941666666666666,-4.33
501100,6.944444444444445,-4.33
501101,6.947222222222222,-4.325
501102,6.95,-4.33
501103,6.9527777777777775,-4.33
501104,6.955555555555556,-4.31
501105,6.958333333333333,-4.29
501106,6.961111111111111,-4.29
501107,6.963888888888889,-4.28
501108,6.966666666666667,-4.265
501109,6.969444444444444,-4.265
501110,6.972222222222222,-4.27
501111,6.975,-4.285
501112,6.977777777777778,-4.27
501113,6.980555555555555,-4.265
501114,6.983333333333333,-4.26
501115,6.986111111111111,-4.265
501116,6.988888888888889,-4.25
501117,6.991666666666666,-4.23
501118,6.9944444444444445,-4.235
501119,6.997222222222222,-4.22
501120,7.0,-4.21
501121,7.002777777777778,-4.19
501122,7.0055555555555555,-4.2
501123,7.008333333333334,-4.205
501124,7.011111111111111,-4.205
501125,7.013888888888889,-4.205
501126,7.016666666666667,-4.205
501127,7.019444444444445,-4.21
501128,7.022222222222222,-4.195
501129,7.025,-4.19
501130,7.027777777777778,-4.175
501131,7.030555555555556,-4.165
501132,7.033333333333333,-4.155
501133,7.036111111111111,-4.165
501134,7.038888888888889,-4.155
501135,7.041666666666667,-4.16
501136,7.044444444444444,-4.165
501137,7.0472222222222225,-4.165
501138,7.05,-4.175
501139,7.052777777777778,-4.18
501140,7.055555555555555,-4.125
501141,7.058333333333334,-4.125
501142,7.061111111111111,-4.1
501143,7.063888888888889,-4.1
501144,7.066666666666666,-4.095
501145,7.069444444444445,-4.095
501146,7.072222222222222,-4.095
501147,7.075,-4.115
501148,7.0777777777777775,-4.125
501149,7.080555555555556,-4.16
501150,7.083333333333333,-4.175
501151,7.086111111111111,-4.185
501152,7.088888888888889,-4.19
501153,7.091666666666667,-4.185
501154,7.094444444444444,-4.19
501155,7.097222222222222,-4.19
501156,7.1,-4.195
501157,7.102777777777778,-4.18
501158,7.105555555555555,-4.17
501159,7.108333333333333,-4.18
501160,7.111111111111111,-4.165
501161,7.113888888888889,-4.16
501162,7.116666666666666,-4.16
501163,7.1194444444444445,-4.13
501164,7.122222222222222,-4.1
501165,7.125,-4.075
501166,7.127777777777778,-4.06
501167,7.1305555555555555,-4.03
501168,7.133333333333334,-4.035
501169,7.136111111111111,-4.02
501170,7.138888888888889,-4.02
501171,7.141666666666667,-4.02
501172,7.144444444444445,-4.01
501173,7.147222222222222,-4.005
501174,7.15,-4.005
501175,7.152777777777778,-4.02
501176,7.155555555555556,-3.985
501177,7.158333333333333,-3.97
501178,7.161111111111111,-3.95
501179,7.163888888888889,-3.94
501180,7.166666666666667,-3.94
501181,7.169444444444444,-3.955
501182,7.1722222222222225,-3.955
501183,7.175,-3.95
501184,7.177777777777778,-3.945
501185,7.180555555555555,-3.96
501186,7.183333333333334,-3.94
501187,7.186111111111111,-3.96
501188,7.188888888888889,-3.945
501189,7.191666666666666,-3.925
501190,7.194444444444445,-3.905
501191,7.197222222222222,-3.895
501192,7.2,-3.875
501193,7.2027777777777775,-3.88
501194,7.205555555555556,-3.875
501195,7.208333333333333,-3.895
501196,7.211111111111111,-3.885
501197,7.213888888888889,-3.9
501198,7.216666666666667,-3.905
501199,7.219444444444444,-3.905
501200,7.222222222222222,-3.89
501201,7.225,-3.86
501202,7.227777777777778,-3.86
501203,7.230555555555555,-3.87
501204,7.233333333333333,-3.845
501205,7.236111111111111,-3.835
501206,7.238888888888889,-3.845
501207,7.241666666666666,-3.835
501208,7.2444444444444445,-3.83
501209,7.247222222222222,-3.85
501210,7.25,-3.84
501211,7.252777777777778,-3.84
501212,7.2555555555555555,-3.855
501213,7.258333333333334,-3.825
501214,7.261111111111111,-3.82
501215,7.263888888888889,-3.79
501216,7.266666666666667,-3.79
501217,7.269444444444445,-3.81
501218,7.272222222222222,-3.81
501219,7.275,-3.82
501220,7.277777777777778,-3.835
501221,7.280555555555556,-3.82
501222,7.283333333333333,-3.82
501223,7.286111111111111,-3.83
501224,7.288888888888889,-3.81
501225,7.291666666666667,-3.805
501226,7.294444444444444,-3.795
501227,7.2972222222222225,-3.785
501228,7.3,-3.775
501229,7.302777777777778,-3.765
501230,7.305555555555555,-3.76
501231,7.308333333333334,-3.765
501232,7.311111111111111,-3.765
501233,7.313888888888889,-3.77
501234,7.316666666666666,-3.77
501235,7.319444444444445,-3.755
501236,7.322222222222222,-3.75
501237,7.325,-3.735
501238,7.3277777777777775,-3.725
501239,7.330555555555556,-3.7
501240,7.333333333333333,-3.7
501241,7.336111111111111,-3.7
501242,7.338888888888889,-3.705
501243,7.341666666666667,-3.705
501244,7.344444444444444,-3.71
501245,7.347222222222222,-3.705
501246,7.35,-3.71
501247,7.352777777777778,-3.715
501248,7.355555555555555,-3.7
501249,7.358333333333333,-3.71
501250,7.361111111111111,-3.7
501251,7.363888888888889,-3.675
501252,7.366666666666666,-3.665
501253,7.3694444444444445,-3.67
501254,7.372222222222222,-3.675
501255,7.375,-3.7
501256,7.377777777777778,-3.68
501257,7.3805555555555555,-3.685
501258,7.383333333333334,-3.675
501259,7.386111111111111,-3.665
501260,7.388888888888889,-3.65
501261,7.391666666666667,-3.635
501262,7.394444444444445,-3.64
501263,7.397222222222222,-3.615
501264,7.4,-3.61
501265,7.402777777777778,-3.61
501266,7.405555555555556,-3.61
501267,7.408333333333333,-3.61
501268,7.411111111111111,-3.615
501269,7.413888888888889,-3.62
501270,7.416666666666667,-3.625
501271,7.419444444444444,-3.615
501272,7.4222222222222225,-3.615
501273,7.425,-3.6
501274,7.427777777777778,-3.605
501275,7.430555555555555,-3.585
501276,7.433333333333334,-3.585
501277,7.436111111111111,-3.58
501278,7.438888888888889,-3.57
501279,7.441666666666666,-3.595
501280,7.444444444444445,-3.61
501281,7.447222222222222,-3.595
501282,7.45,-3.575
501283,7.4527777777777775,-3.58
501284,7.455555555555556,-3.58
501285,7.458333333333333,-3.565
501286,7.461111111111111,-3.55
501287,7.463888888888889,-3.535
501288,7.466666666666667,-3.54
501289,7.469444444444444,-3.53
501290,7.472222222222222,-3.53
501291,7.475,-3.535
501292,7.477777777777778,-3.54
501293,7.480555555555555,-3.535
501294,7.483333333333333,-3.545
501295,7.486111111111111,-3.535
501296,7.488888888888889,-3.525
501297,7.491666666666666,-3.52
501298,7.4944444444444445,-3.51
501299,7.497222222222222,-3.495
501300,7.5,-3.495
501301,7.502777777777778,-3.49
501302,7.5055555555555555,-3.495
501303,7.508333333333334,-3.515
501304,7.511111111111111,-3.51
501305,7.513888888888889,-3.515
501306,7.516666666666667,-3.515
501307,7.519444444444445,-3.495
501308,7.522222222222222,-3.49
501309,7.525,-3.485
501310,7.527777777777778,-3.475
501311,7.530555555555556,-3.46
501312,7.533333333333333,-3.445
501313,7.536111111111111,-3.445
501314,7.538888888888889,-3.44
501315,7.541666666666667,-3.45
501316,7.544444444444444,-3.465
501317,7.5472222222222225,-3.45
501318,7.55,-3.455
501319,7.552777777777778,-3.455
501320,7.555555555555555,-3.445
501321,7.558333333333334,-3.425
501322,7.561111111111111,-3.425
501323,7.563888888888889,-3.41
501324,7.566666666666666,-3.39
501325,7.569444444444445,-3.395
501326,7.572222222222222,-3.4
501327,7.575,-3.4
501328,7.5777777777777775,-3.41
501329,7.580555555555556,-3.41
501330,7.583333333333333,-3.42
501331,7.586111111111111,-3.415
501332,7.588888888888889,-3.42
501333,7.591666666666667,-3.395
501334,7.594444444444444,-3.395
501335,7.597222222222222,-3.385
501336,7.6,-3.375
501337,7.602777777777778,-3.375
501338,7.605555555555555,-3.385
501339,7.608333333333333,-3.375
501340,7.611111111111111,-3.385
501341,7.613888888888889,-3.39
501342,7.616666666666666,-3.375
501343,7.6194444444444445,-3.375
501344,7.622222222222222,-3.365
501345,7.625,-3.345
501346,7.627777777777778,-3.345
501347,7.6305555555555555,-3.32
501348,7.633333333333334,-3.325
501349,7.636111111111111,-3.315
501350,7.638888888888889,-3.325
501351,7.641666666666667,-3.325
501352,7.644444444444445,-3.315
501353,7.647222222222222,-3.34
501354,7.65,-3.325
501355,7.652777777777778,-3.335
501356,7.655555555555556,-3.315
501357,7.658333333333333,-3.31
501358,7.661111111111111,-3.31
501359,7.663888888888889,-3.29
501360,7.666666666666667,-3.275
501361,7.669444444444444,-3.275
501362,7.6722222222222225,-3.275
501363,7.675,-3.295
501364,7.677777777777778,-3.29
501365,7.680555555555555,-3.29
501366,7.683333333333334,-3.305
501367,7.686111111111111,-3.3
501368,7.688888888888889,-3.29
501369,7.691666666666666,-3.285
501370,7.694444444444445,-3.265
501371,7.697222222222222,-3.245
501372,7.7,-3.24
501373,7.7027777777777775,-3.23
501374,7.705555555555556,-3.225
501375,7.708333333333333,-3.25
501376,7.711111111111111,-3.245
501377,7.713888888888889,-3.25
501378,7.716666666666667,-3.26
501379,7.719444444444444,-3.25
501380,7.722222222222222,-3.24
501381,7.725,-3.225
501382,7.727777777777778,-3.225
501383,7.730555555555555,-3.21
501384,7.733333333333333,-3.2
501385,7.736111111111111,-3.2
501386,7.738888888888889,-3.195
501387,7.741666666666666,-3.195
501388,7.7444444444444445,-3.205
501389,7.747222222222222,-3.22
501390,7.75,-3.21
501391,7.752777777777778,-3.22
501392,7.7555555555555555,-3.21
501393,7.758333333333334,-3.2
501394,7.761111111111111,-3.2
501395,7.763888888888889,-3.19
501396,7.766666666666667,-3.17
501397,7.769444444444445,-3.17
501398,7.772222222222222,-3.17
501399,7.775,-3.18
501400,7.777777777777778,-3.185
501401,7.780555555555556,-3.18
501402,7.783333333333333,-3.18
501403,7.786111111111111,-3.165
501404,7.788888888888889,-3.17
501405,7.791666666666667,-3.15
501406,7.794444444444444,-3.145
501407,7.7972222222222225,-3.145
501408,7.8,-3.125
501409,7.802777777777778,-3.14
501410,7.805555555555555,-3.125
501411,7.808333333333334,-3.135
501412,7.811111111111111,-3.135
501413,7.813888888888889,-3.14
501414,7.816666666666666,-3.14
501415,7.819444444444445,-3.135
501416,7.822222222222222,-3.15
501417,7.825,-3.165
501418,7.8277777777777775,-3.165
501419,7.830555555555556,-3.17
501420,7.833333333333333,-3.18
501421,7.836111111111111,-3.19
501422,7.838888888888889,-3.195
501423,7.841666666666667,-3.21
501424,7.844444444444444,-3.19
501425,7.847222222222222,-3.19
501426,7.85,-3.15
501427,7.852777777777778,-3.13
501428,7.855555555555555,-3.105
501429,7.858333333333333,-3.09
501430,7.861111111111111,-3.08
501431,7.863888888888889,-3.06
501432,7.866666666666666,-3.06
501433,7.8694444444444445,-3.06
501434,7.872222222222222,-3.06
501435,7.875,-3.045
501436,7.877777777777778,-3.05
501437,7.8805555555555555,-3.07
501438,7.883333333333334,-3.065
501439,7.886111111111111,-3.07
501440,7.888888888888889,-3.075
501441,7.891666666666667,-3.055
501442,7.894444444444445,-3.045
501443,7.897222222222222,-3.03
501444,7.9,-3.025
501445,7.902777777777778,-3.03
501446,7.905555555555556,-3.02
501447,7.908333333333333,-3.03
501448,7.911111111111111,-3.04
501449,7.913888888888889,-3.03
501450,7.916666666666667,-3.06
501451,7.919444444444444,-3.045
501452,7.9222222222222225,-3.025
501453,7.925,-3.0
501454,7.927777777777778,-3.005
501455,7.930555555555555,-3.0
501456,7.933333333333334,-2.995
501457,7.936111111111111,-2.965
501458,7.938888888888889,-2.98
501459,7.941666666666666,-3.005
501460,7.944444444444445,-3.01
501461,7.947222222222222,-3.015
501462,7.95,-3.01
501463,7.9527777777777775,-3.025
501464,7.955555555555556,-3.005
501465,7.958333333333333,-3.005
501466,7.961111111111111,-2.965
501467,7.963888888888889,-2.965
501468,7.966666666666667,-2.945
501469,7.969444444444444,-2.95
501470,7.972222222222222,-2.945
501471,7.975,-2.955
501472,7.977777777777778,-2.96
501473,7.980555555555555,-2.98
501474,7.983333333333333,-2.965
501475,7.986111111111111,-2.97
501476,7.988888888888889,-2.965
501477,7.991666666666666,-2.955
501478,7.9944444444444445,-2.94
501479,7.997222222222222,-2.925
501480,8.0,-2.915
501481,8.002777777777778,-2.925
501482,8.005555555555556,-2.93
501483,8.008333333333333,-2.915
501484,8.011111111111111,-2.93
501485,8.01388888888889,-2.95
501486,8.016666666666667,-2.935
501487,8.019444444444444,-2.935
501488,8.022222222222222,-2.945
501489,8.025,-2.93
501490,8.027777777777779,-2.925
501491,8.030555555555555,-2.915
501492,8.033333333333333,-2.89
501493,8.036111111111111,-2.895
501494,8.03888888888889,-2.9
501495,8.041666666666666,-2.91
501496,8.044444444444444,-2.905
501497,8.047222222222222,-2.915
501498,8.05,-2.93
501499,8.052777777777777,-2.9
501500,8.055555555555555,-2.91
501501,8.058333333333334,-2.9
501502,8.061111111111112,-2.88
501503,8.063888888888888,-2.875
501504,8.066666666666666,-2.86
501505,8.069444444444445,-2.85
501506,8.072222222222223,-2.845
501507,8.075,-2.855
501508,8.077777777777778,-2.86
501509,8.080555555555556,-2.875
501510,8.083333333333334,-2.865
501511,8.08611111111111,-2.865
501512,8.088888888888889,-2.85
501513,8.091666666666667,-2.85
501514,8.094444444444445,-2.84
501515,8.097222222222221,-2.825
501516,8.1,-2.82
501517,8.102777777777778,-2.82
501518,8.105555555555556,-2.815
501519,8.108333333333333,-2.815
501520,8.11111111111111,-2.82
501521,8.113888888888889,-2.825
501522,8.116666666666667,-2.83
501523,8.119444444444444,-2.82
501524,8.122222222222222,-2.825
501525,8.125,-2.8
501526,8.127777777777778,-2.79
501527,8.130555555555556,-2.77
501528,8.133333333333333,-2.79
501529,8.136111111111111,-2.78
501530,8.13888888888889,-2.78
501531,8.141666666666667,-2.805
501532,8.144444444444444,-2.785
501533,8.147222222222222,-2.8
501534,8.15,-2.805
501535,8.152777777777779,-2.82
501536,8.155555555555555,-2.805
501537,8.158333333333333,-2.77
501538,8.161111111111111,-2.77
501539,8.16388888888889,-2.76
501540,8.166666666666666,-2.74
501541,8.169444444444444,-2.75
501542,8.172222222222222,-2.74
501543,8.175,-2.745
501544,8.177777777777777,-2.76
501545,8.180555555555555,-2.77
501546,8.183333333333334,-2.765
501547,8.186111111111112,-2.765
501548,8.188888888888888,-2.765
501549,8.191666666666666,-2.755
501550,8.194444444444445,-2.75
501551,8.197222222222223,-2.73
501552,8.2,-2.715
501553,8.202777777777778,-2.72
501554,8.205555555555556,-2.72
501555,8.208333333333334,-2.735
501556,8.21111111111111,-2.75
501557,8.213888888888889,-2.74
501558,8.216666666666667,-2.74
501559,8.219444444444445,-2.735
501560,8.222222222222221,-2.72
501561,8.225,-2.725
501562,8.227777777777778,-2.71
501563,8.230555555555556,-2.69
501564,8.233333333333333,-2.675
501565,8.23611111111111,-2.68
501566,8.238888888888889,-2.68
501567,8.241666666666667,-2.685
501568,8.244444444444444,-2.685
501569,8.247222222222222,-2.69
501570,8.25,-2.7
501571,8.252777777777778,-2.68
501572,8.255555555555556,-2.67
501573,8.258333333333333,-2.665
501574,8.261111111111111,-2.655
501575,8.26388888888889,-2.64
501576,8.266666666666667,-2.62
501577,8.269444444444444,-2.63
501578,8.272222222222222,-2.63
501579,8.275,-2.64
501580,8.277777777777779,-2.66
501581,8.280555555555555,-2.68
501582,8.283333333333333,-2.67
501583,8.286111111111111,-2.67
501584,8.28888888888889,-2.66
501585,8.291666666666666,-2.64
501586,8.294444444444444,-2.63
501587,8.297222222222222,-2.605
501588,8.3,-2.6
501589,8.302777777777777,-2.615
501590,8.305555555555555,-2.59
501591,8.308333333333334,-2.61
501592,8.311111111111112,-2.62
501593,8.313888888888888,-2.625
501594,8.316666666666666,-2.63
501595,8.319444444444445,-2.625
501596,8.322222222222223,-2.615
501597,8.325,-2.62
501598,8.327777777777778,-2.61
501599,8.330555555555556,-2.595
501600,8.333333333333334,-2.56
501601,8.33611111111111,-2.57
501602,8.338888888888889,-2.57
501603,8.341666666666667,-2.58
501604,8.344444444444445,-2.585
501605,8.347222222222221,-2.59
501606,8.35,-2.58
501607,8.352777777777778,-2.58
501608,8.355555555555556,-2.575
501609,8.358333333333333,-2.57
501610,8.36111111111111,-2.57
501611,8.363888888888889,-2.56
501612,8.366666666666667,-2.54
501613,8.369444444444444,-2.55
501614,8.372222222222222,-2.53
501615,8.375,-2.545
501616,8.377777777777778,-2.555
501617,8.380555555555556,-2.56
501618,8.383333333333333,-2.565
501619,8.386111111111111,-2.56
501620,8.38888888888889,-2.555
501621,8.391666666666667,-2.555
501622,8.394444444444444,-2.545
501623,8.397222222222222,-2.535
501624,8.4,-2.525
501625,8.402777777777779,-2.51
501626,8.405555555555555,-2.5
501627,8.408333333333333,-2.515
501628,8.411111111111111,-2.535
501629,8.41388888888889,-2.53
501630,8.416666666666666,-2.525
501631,8.419444444444444,-2.545
501632,8.422222222222222,-2.54
501633,8.425,-2.505
501634,8.427777777777777,-2.5
501635,8.430555555555555,-2.49
501636,8.433333333333334,-2.485
501637,8.436111111111112,-2.485
501638,8.438888888888888,-2.47
501639,8.441666666666666,-2.475
501640,8.444444444444445,-2.48
501641,8.447222222222223,-2.49
501642,8.45,-2.505
501643,8.452777777777778,-2.49
501644,8.455555555555556,-2.495
501645,8.458333333333334,-2.48
501646,8.46111111111111,-2.47
501647,8.463888888888889,-2.46
501648,8.466666666666667,-2.445
501649,8.469444444444445,-2.45
501650,8.472222222222221,-2.45
501651,8.475,-2.46
501652,8.477777777777778,-2.46
501653,8.480555555555556,-2.46
501654,8.483333333333333,-2.47
501655,8.48611111111111,-2.455
501656,8.488888888888889,-2.455
501657,8.491666666666667,-2.45
501658,8.494444444444444,-2.44
501659,8.497222222222222,-2.435
501660,8.5,-2.425
501661,8.502777777777778,-2.415
501662,8.505555555555556,-2.425
501663,8.508333333333333,-2.445
501664,8.511111111111111,-2.445
501665,8.51388888888889,-2.45
501666,8.516666666666667,-2.455
501667,8.519444444444444,-2.455
501668,8.522222222222222,-2.435
501669,8.525,-2.43
501670,8.527777777777779,-2.415
501671,8.530555555555555,-2.405
501672,8.533333333333333,-2.405
501673,8.536111111111111,-2.405
501674,8.53888888888889,-2.405
501675,8.541666666666666,-2.405
501676,8.544444444444444,-2.405
501677,8.547222222222222,-2.42
501678,8.55,-2.435
501679,8.552777777777777,-2.43
501680,8.555555555555555,-2.42
501681,8.558333333333334,-2.41
501682,8.561111111111112,-2.395
501683,8.563888888888888,-2.4
501684,8.566666666666666,-2.42
501685,8.569444444444445,-2.405
501686,8.572222222222223,-2.41
501687,8.575,-2.405
501688,8.577777777777778,-2.415
501689,8.580555555555556,-2.4
501690,8.583333333333334,-2.405
501691,8.58611111111111,-2.4
501692,8.588888888888889,-2.39
501693,8.591666666666667,-2.38
501694,8.594444444444445,-2.365
501695,8.597222222222221,-2.35
501696,8.6,-2.34
501697,8.602777777777778,-2.335
501698,8.605555555555556,-2.335
501699,8.608333333333333,-2.345
501700,8.61111111111111,-2.35
501701,8.613888888888889,-2.375
501702,8.616666666666667,-2.375
501703,8.619444444444444,-2.37
501704,8.622222222222222,-2.35
501705,8.625,-2.345
501706,8.627777777777778,-2.335
501707,8.630555555555556,-2.32
501708,8.633333333333333,-2.315
501709,8.636111111111111,-2.3
501710,8.63888888888889,-2.305
501711,8.641666666666667,-2.315
501712,8.644444444444444,-2.315
501713,8.647222222222222,-2.32
501714,8.65,-2.315
501715,8.652777777777779,-2.325
501716,8.655555555555555,-2.325
501717,8.658333333333333,-2.305
501718,8.661111111111111,-2.3
501719,8.66388888888889,-2.285
501720,8.666666666666666,-2.27
501721,8.669444444444444,-2.275
501722,8.672222222222222,-2.28
501723,8.675,-2.295
501724,8.677777777777777,-2.3
501725,8.680555555555555,-2.295
501726,8.683333333333334,-2.3
501727,8.686111111111112,-2.285
501728,8.688888888888888,-2.285
501729,8.691666666666666,-2.28
501730,8.694444444444445,-2.28
501731,8.697222222222223,-2.265
501732,8.7,-2.24
501733,8.702777777777778,-2.255
501734,8.705555555555556,-2.265
501735,8.708333333333334,-2.25
501736,8.71111111111111,-2.265
501737,8.713888888888889,-2.265
501738,8.716666666666667,-2.26
501739,8.719444444444445,-2.265
501740,8.722222222222221,-2.26
501741,8.725,-2.235
501742,8.727777777777778,-2.235
501743,8.730555555555556,-2.22
501744,8.733333333333333,-2.22
501745,8.73611111111111,-2.225
501746,8.738888888888889,-2.23
501747,8.741666666666667,-2.23
501748,8.744444444444444,-2.235
501749,8.747222222222222,-2.23
501750,8.75,-2.235
501751,8.752777777777778,-2.245
501752,8.755555555555556,-2.24
501753,8.758333333333333,-2.22
501754,8.761111111111111,-2.205
501755,8.76388888888889,-2.205
501756,8.766666666666667,-2.185
501757,8.769444444444444,-2.18
501758,8.772222222222222,-2.185
501759,8.775,-2.175
501760,8.777777777777779,-2.19
501761,8.780555555555555,-2.185
501762,8.783333333333333,-2.2
501763,8.786111111111111,-2.19
501764,8.78888888888889,-2.195
501765,8.791666666666666,-2.185
501766,8.794444444444444,-2.18
501767,8.797222222222222,-2.18
501768,8.8,-2.155
501769,8.802777777777777,-2.14
501770,8.805555555555555,-2.155
501771,8.808333333333334,-2.165
501772,8.811111111111112,-2.17
501773,8.813888888888888,-2.175
501774,8.816666666666666,-2.175
501775,8.819444444444445,-2.175
501776,8.822222222222223,-2.185
501777,8.825,-2.16
501778,8.827777777777778,-2.15
501779,8.830555555555556,-2.15
501780,8.833333333333334,-2.125
501781,8.83611111111111,-2.135
501782,8.838888888888889,-2.125
501783,8.841666666666667,-2.13
501784,8.844444444444445,-2.13
501785,8.847222222222221,-2.16
501786,8.85,-2.14
501787,8.852777777777778,-2.16
501788,8.855555555555556,-2.145
501789,8.858333333333333,-2.13
501790,8.86111111111111,-2.11
501791,8.863888888888889,-2.11
501792,8.866666666666667,-2.09
501793,8.869444444444444,-2.085
501794,8.872222222222222,-2.085
501795,8.875,-2.105
501796,8.877777777777778,-2.115
501797,8.880555555555556,-2.12
501798,8.883333333333333,-2.135
501799,8.886111111111111,-2.13
501800,8.88888888888889,-2.11
501801,8.891666666666667,-2.095
501802,8.894444444444444,-2.085
501803,8.897222222222222,-2.08
501804,8.9,-2.08
501805,8.902777777777779,-2.075
501806,8.905555555555555,-2.055
501807,8.908333333333333,-2.05
501808,8.911111111111111,-2.08
501809,8.91388888888889,-2.075
501810,8.916666666666666,-2.075
501811,8.919444444444444,-2.075
501812,8.922222222222222,-2.075
501813,8.925,-2.07
501814,8.927777777777777,-2.05
501815,8.930555555555555,-2.045
501816,8.933333333333334,-2.03
501817,8.936111111111112,-2.03
501818,8.938888888888888,-2.03
501819,8.941666666666666,-2.025
501820,8.944444444444445,-2.04
501821,8.947222222222223,-2.045
501822,8.95,-2.06
501823,8.952777777777778,-2.055
501824,8.955555555555556,-2.055
501825,8.958333333333334,-2.03
501826,8.96111111111111,-2.02
501827,8.963888888888889,-2.015
501828,8.966666666666667,-2.0
501829,8.969444444444445,-2.005
501830,8.972222222222221,-2.01
501831,8.975,-2.015
501832,8.977777777777778,-2.015
501833,8.980555555555556,-2.03
501834,8.983333333333333,-2.03
501835,8.98611111111111,-2.03
501836,8.988888888888889,-2.03
501837,8.991666666666667,-2.02
501838,8.994444444444444,-2.015
501839,8.997222222222222,-2.005
501840,9.0,-1.995
501841,9.002777777777778,-1.995
501842,9.005555555555556,-1.995
501843,9.008333333333333,-2.005
501844,9.011111111111111,-2.01
501845,9.01388888888889,-2.0
501846,9.016666666666667,-2.01
501847,9.019444444444444,-2.005
501848,9.022222222222222,-2.015
501849,9.025,-1.995
501850,9.027777777777779,-1.975
501851,9.030555555555555,-1.97
501852,9.033333333333333,-1.965
501853,9.036111111111111,-1.96
501854,9.03888888888889,-1.955
501855,9.041666666666666,-1.965
501856,9.044444444444444,-1.965
501857,9.047222222222222,-1.98
501858,9.05,-1.98
501859,9.052777777777777,-1.98
501860,9.055555555555555,-1.985
501861,9.058333333333334,-1.985
501862,9.061111111111112,-1.98
501863,9.063888888888888,-1.955
501864,9.066666666666666,-1.95
501865,9.069444444444445,-1.93
501866,9.072222222222223,-1.94
501867,9.075,-1.95
501868,9.077777777777778,-1.96
501869,9.080555555555556,-1.97
501870,9.083333333333334,-1.97
501871,9.08611111111111,-1.96
501872,9.088888888888889,-1.95
501873,9.091666666666667,-1.935
501874,9.094444444444445,-1.94
501875,9.097222222222221,-1.925
501876,9.1,-1.92
501877,9.102777777777778,-1.92
501878,9.105555555555556,-1.91
501879,9.108333333333333,-1.915
501880,9.11111111111111,-1.915
501881,9.113888888888889,-1.925
501882,9.116666666666667,-1.925
501883,9.119444444444444,-1.94
501884,9.122222222222222,-1.93
501885,9.125,-1.925
501886,9.127777777777778,-1.905
501887,9.130555555555556,-1.9
501888,9.133333333333333,-1.89
501889,9.136111111111111,-1.885
501890,9.13888888888889,-1.88
501891,9.141666666666667,-1.89
501892,9.144444444444444,-1.905
501893,9.147222222222222,-1.9
501894,9.15,-1.905
501895,9.152777777777779,-1.92
501896,9.155555555555555,-1.905
501897,9.158333333333333,-1.885
501898,9.161111111111111,-1.88
501899,9.16388888888889,-1.855
501900,9.166666666666666,-1.855
501901,9.169444444444444,-1.865
501902,9.172222222222222,-1.86
501903,9.175,-1.865
501904,9.177777777777777,-1.875
501905,9.180555555555555,-1.87
501906,9.183333333333334,-1.87
501907,9.186111111111112,-1.885
501908,9.188888888888888,-1.885
501909,9.191666666666666,-1.87
501910,9.194444444444445,-1.86
501911,9.197222222222223,-1.84
501912,9.2,-1.825
501913,9.202777777777778,-1.825
501914,9.205555555555556,-1.83
501915,9.208333333333334,-1.825
501916,9.21111111111111,-1.84
501917,9.213888888888889,-1.84
501918,9.216666666666667,-1.845
501919,9.219444444444445,-1.845
501920,9.222222222222221,-1.845
501921,9.225,-1.83
501922,9.227777777777778,-1.825
501923,9.230555555555556,-1.81
501924,9.233333333333333,-1.795
501925,9.23611111111111,-1.785
501926,9.238888888888889,-1.79
501927,9.241666666666667,-1.805
501928,9.244444444444444,-1.8
501929,9.247222222222222,-1.81
501930,9.25,-1.815
501931,9.252777777777778,-1.82
501932,9.255555555555556,-1.815
501933,9.258333333333333,-1.8
501934,9.261111111111111,-1.785
501935,9.26388888888889,-1.775
501936,9.266666666666667,-1.755
501937,9.269444444444444,-1.76
501938,9.272222222222222,-1.75
501939,9.275,-1.765
501940,9.277777777777779,-1.77
501941,9.280555555555555,-1.78
501942,9.283333333333333,-1.795
501943,9.286111111111111,-1.78
501944,9.28888888888889,-1.78
501945,9.291666666666666,-1.77
501946,9.294444444444444,-1.755
501947,9.297222222222222,-1.745
501948,9.3,-1.73
501949,9.302777777777777,-1.74
501950,9.305555555555555,-1.74
501951,9.308333333333334,-1.735
501952,9.311111111111112,-1.735
501953,9.313888888888888,-1.75
501954,9.316666666666666,-1.765
501955,9.319444444444445,-1.755
501956,9.322222222222223,-1.755
501957,9.325,-1.745
501958,9.327777777777778,-1.73
501959,9.330555555555556,-1.72
501960,9.333333333333334,-1.715
501961,9.33611111111111,-1.71
501962,9.338888888888889,-1.72
501963,9.341666666666667,-1.72
501964,9.344444444444445,-1.73
501965,9.347222222222221,-1.725
501966,9.35,-1.735
501967,9.352777777777778,-1.745
501968,9.355555555555556,-1.76
501969,9.358333333333333,-1.745
501970,9.36111111111111,-1.725
501971,9.363888888888889,-1.705
501972,9.366666666666667,-1.71
501973,9.369444444444444,-1.705
501974,9.372222222222222,-1.7
501975,9.375,-1.705
501976,9.377777777777778,-1.71
501977,9.380555555555556,-1.7
501978,9.383333333333333,-1.7
501979,9.386111111111111,-1.71
501980,9.38888888888889,-1.72
501981,9.391666666666667,-1.7
501982,9.394444444444444,-1.695
501983,9.397222222222222,-1.675
501984,9.4,-1.65
501985,9.402777777777779,-1.65
501986,9.405555555555555,-1.65
501987,9.408333333333333,-1.65
501988,9.411111111111111,-1.66
501989,9.41388888888889,-1.665
501990,9.416666666666666,-1.66
501991,9.419444444444444,-1.66
501992,9.422222222222222,-1.665
501993,9.425,-1.655
501994,9.427777777777777,-1.645
501995,9.430555555555555,-1.63
501996,9.433333333333334,-1.62
501997,9.436111111111112,-1.615
501998,9.438888888888888,-1.625
501999,9.441666666666666,-1.625
502000,9.444444444444445,-1.625
502001,9.447222222222223,-1.64
502002,9.45,-1.645
502003,9.452777777777778,-1.64
502004,9.455555555555556,-1.64
502005,9.458333333333334,-1.63
502006,9.46111111111111,-1.62
502007,9.463888888888889,-1.61
502008,9.466666666666667,-1.59
502009,9.469444444444445,-1.59
502010,9.472222222222221,-1.6
502011,9.475,-1.595
502012,9.477777777777778,-1.6
502013,9.480555555555556,-1.615
502014,9.483333333333333,-1.615
502015,9.48611111111111,-1.63
502016,9.488888888888889,-1.62
502017,9.491666666666667,-1.62
502018,9.494444444444444,-1.61
502019,9.497222222222222,-1.6
502020,9.5,-1.585
502021,9.502777777777778,-1.585
502022,9.505555555555556,-1.59
502023,9.508333333333333,-1.595
502024,9.511111111111111,-1.605
502025,9.51388888888889,-1.605
502026,9.516666666666667,-1.605
502027,9.519444444444444,-1.595
502028,9.522222222222222,-1.595
502029,9.525,-1.58
502030,9.527777777777779,-1.575
502031,9.530555555555555,-1.555
502032,9.533333333333333,-1.555
502033,9.536111111111111,-1.545
502034,9.53888888888889,-1.53
502035,9.541666666666666,-1.545
502036,9.544444444444444,-1.555
502037,9.547222222222222,-1.56
502038,9.55,-1.57
502039,9.552777777777777,-1.57
502040,9.555555555555555,-1.575
502041,9.558333333333334,-1.57
502042,9.561111111111112,-1.545
502043,9.563888888888888,-1.535
502044,9.566666666666666,-1.52
502045,9.569444444444445,-1.525
502046,9.572222222222223,-1.525
502047,9.575,-1.53
502048,9.577777777777778,-1.545
502049,9.580555555555556,-1.555
502050,9.583333333333334,-1.555
502051,9.58611111111111,-1.56
502052,9.588888888888889,-1.56
502053,9.591666666666667,-1.545
502054,9.594444444444445,-1.54
502055,9.597222222222221,-1.52
502056,9.6,-1.505
502057,9.602777777777778,-1.485
502058,9.605555555555556,-1.51
502059,9.608333333333333,-1.515
502060,9.61111111111111,-1.515
502061,9.613888888888889,-1.525
502062,9.616666666666667,-1.525
502063,9.619444444444444,-1.535
502064,9.622222222222222,-1.535
502065,9.625,-1.52
502066,9.627777777777778,-1.5
502067,9.630555555555556,-1.495
502068,9.633333333333333,-1.49
502069,9.636111111111111,-1.485
502070,9.63888888888889,-1.475
502071,9.641666666666667,-1.515
502072,9.644444444444444,-1.51
502073,9.647222222222222,-1.495
502074,9.65,-1.51
502075,9.652777777777779,-1.51
502076,9.655555555555555,-1.5
502077,9.658333333333333,-1.49
502078,9.661111111111111,-1.495
502079,9.66388888888889,-1.47
502080,9.666666666666666,-1.46
502081,9.669444444444444,-1.45
502082,9.672222222222222,-1.455
502083,9.675,-1.46
502084,9.677777777777777,-1.465
502085,9.680555555555555,-1.475
502086,9.683333333333334,-1.475
502087,9.686111111111112,-1.48
502088,9.688888888888888,-1.475
502089,9.691666666666666,-1.46
502090,9.694444444444445,-1.445
502091,9.697222222222223,-1.44
502092,9.7,-1.44
502093,9.702777777777778,-1.45
502094,9.705555555555556,-1.44
502095,9.708333333333334,-1.455
502096,9.71111111111111,-1.46
502097,9.713888888888889,-1.45
502098,9.716666666666667,-1.45
502099,9.719444444444445,-1.45
502100,9.722222222222221,-1.46
502101,9.725,-1.445
502102,9.727777777777778,-1.435
502103,9.730555555555556,-1.43
502104,9.733333333333333,-1.415
502105,9.73611111111111,-1.41
502106,9.738888888888889,-1.425
502107,9.741666666666667,-1.435
502108,9.744444444444444,-1.44
502109,9.747222222222222,-1.43
502110,9.75,-1.43
502111,9.752777777777778,-1.44
502112,9.755555555555556,-1.425
502113,9.758333333333333,-1.415
502114,9.761111111111111,-1.42
502115,9.76388888888889,-1.425
502116,9.766666666666667,-1.405
502117,9.769444444444444,-1.4
502118,9.772222222222222,-1.405
502119,9.775,-1.395
502120,9.777777777777779,-1.41
502121,9.780555555555555,-1.42
502122,9.783333333333333,-1.415
502123,9.786111111111111,-1.425
502124,9.78888888888889,-1.405
502125,9.791666666666666,-1.405
502126,9.794444444444444,-1.395
502127,9.797222222222222,-1.385
502128,9.8,-1.37
502129,9.802777777777777,-1.375
502130,9.805555555555555,-1.375
502131,9.808333333333334,-1.38
502132,9.811111111111112,-1.395
502133,9.813888888888888,-1.395
502134,9.816666666666666,-1.395
502135,9.819444444444445,-1.395
502136,9.822222222222223,-1.39
502137,9.825,-1.38
502138,9.827777777777778,-1.36
502139,9.830555555555556,-1.36
502140,9.833333333333334,-1.34
502141,9.83611111111111,-1.345
502142,9.838888888888889,-1.345
502143,9.841666666666667,-1.36
502144,9.844444444444445,-1.365
502145,9.847222222222221,-1.365
502146,9.85,-1.37
502147,9.852777777777778,-1.365
502148,9.855555555555556,-1.37
502149,9.858333333333333,-1.36
502150,9.86111111111111,-1.34
502151,9.863888888888889,-1.33
502152,9.866666666666667,-1.33
502153,9.869444444444444,-1.305
502154,9.872222222222222,-1.325
502155,9.875,-1.33
502156,9.877777777777778,-1.345
502157,9.880555555555556,-1.34
502158,9.883333333333333,-1.36
502159,9.886111111111111,-1.35
502160,9.88888888888889,-1.34
502161,9.891666666666667,-1.33
502162,9.894444444444444,-1.325
502163,9.897222222222222,-1.325
502164,9.9,-1.305
502165,9.902777777777779,-1.3
502166,9.905555555555555,-1.31
502167,9.908333333333333,-1.31
502168,9.911111111111111,-1.32
502169,9.91388888888889,-1.315
502170,9.916666666666666,-1.325
502171,9.919444444444444,-1.345
502172,9.922222222222222,-1.325
502173,9.925,-1.31
502174,9.927777777777777,-1.3
502175,9.930555555555555,-1.295
502176,9.933333333333334,-1.305
502177,9.936111111111112,-1.295
502178,9.938888888888888,-1.295
502179,9.941666666666666,-1.31
502180,9.944444444444445,-1.3
502181,9.947222222222223,-1.31
502182,9.95,-1.315
502183,9.952777777777778,-1.325
502184,9.955555555555556,-1.32
502185,9.958333333333334,-1.305
502186,9.96111111111111,-1.3
502187,9.963888888888889,-1.295
502188,9.966666666666667,-1.26
502189,9.969444444444445,-1.275
502190,9.972222222222221,-1.275
502191,9.975,-1.285
502192,9.977777777777778,-1.305
502193,9.980555555555556,-1.295
502194,9.983333333333333,-1.3
502195,9.98611111111111,-1.305
502196,9.988888888888889,-1.305
502197,9.991666666666667,-1.285
502198,9.994444444444444,-1.275
502199,9.997222222222222,-1.275
