source_sample,relative_time_s,raw_MLII
264600,0.0,-1.12
264601,0.002777777777777778,-1.125
264602,0.005555555555555556,-1.135
264603,0.008333333333333333,-1.135
264604,0.011111111111111112,-1.1
264605,0.013888888888888888,-1.12
264606,0.016666666666666666,-1.115
264607,0.019444444444444445,-1.13
264608,0.022222222222222223,-1.135
264609,0.025,-1.13
264610,0.027777777777777776,-1.13
264611,0.030555555555555555,-1.14
264612,0.03333333333333333,-1.145
264613,0.03611111111111111,-1.125
264614,0.03888888888888889,-1.12
264615,0.041666666666666664,-1.115
264616,0.044444444444444446,-1.11
264617,0.04722222222222222,-1.11
264618,0.05,-1.11
264619,0.05277777777777778,-1.095
264620,0.05555555555555555,-1.1
264621,0.058333333333333334,-1.11
264622,0.06111111111111111,-1.11
264623,0.06388888888888888,-1.105
264624,0.06666666666666667,-1.1
264625,0.06944444444444445,-1.105
264626,0.07222222222222222,-1.09
264627,0.075,-1.09
264628,0.07777777777777778,-1.06
264629,0.08055555555555556,-1.065
264630,0.08333333333333333,-1.075
264631,0.08611111111111111,-1.095
264632,0.08888888888888889,-1.105
264633,0.09166666666666666,-1.11
264634,0.09444444444444444,-1.135
264635,0.09722222222222222,-1.13
264636,0.1,-1.135
264637,0.10277777777777777,-1.12
264638,0.10555555555555556,-1.115
264639,0.10833333333333334,-1.115
264640,0.1111111111111111,-1.105
264641,0.11388888888888889,-1.095
264642,0.11666666666666667,-1.1
264643,0.11944444444444445,-1.105
264644,0.12222222222222222,-1.12
264645,0.125,-1.15
264646,0.12777777777777777,-1.16
264647,0.13055555555555556,-1.165
264648,0.13333333333333333,-1.18
264649,0.1361111111111111,-1.17
264650,0.1388888888888889,-1.16
264651,0.14166666666666666,-1.155
264652,0.14444444444444443,-1.135
264653,0.14722222222222223,-1.15
264654,0.15,-1.16
264655,0.1527777777777778,-1.145
264656,0.15555555555555556,-1.17
264657,0.15833333333333333,-1.165
264658,0.16111111111111112,-1.175
264659,0.1638888888888889,-1.18
264660,0.16666666666666666,-1.185
264661,0.16944444444444445,-1.175
264662,0.17222222222222222,-1.175
264663,0.175,-1.17
264664,0.17777777777777778,-1.16
264665,0.18055555555555555,-1.155
264666,0.18333333333333332,-1.165
264667,0.18611111111111112,-1.19
264668,0.18888888888888888,-1.18
264669,0.19166666666666668,-1.2
264670,0.19444444444444445,-1.21
264671,0.19722222222222222,-1.2
264672,0.2,-1.205
264673,0.20277777777777778,-1.18
264674,0.20555555555555555,-1.175
264675,0.20833333333333334,-1.16
264676,0.2111111111111111,-1.15
264677,0.21388888888888888,-1.15
264678,0.21666666666666667,-1.15
264679,0.21944444444444444,-1.165
264680,0.2222222222222222,-1.19
264681,0.225,-1.2
264682,0.22777777777777777,-1.195
264683,0.23055555555555557,-1.21
264684,0.23333333333333334,-1.19
264685,0.2361111111111111,-1.195
264686,0.2388888888888889,-1.195
264687,0.24166666666666667,-1.195
264688,0.24444444444444444,-1.18
264689,0.24722222222222223,-1.17
264690,0.25,-1.14
264691,0.25277777777777777,-1.125
264692,0.25555555555555554,-1.11
264693,0.25833333333333336,-1.09
264694,0.2611111111111111,-1.09
264695,0.2638888888888889,-1.095
264696,0.26666666666666666,-1.095
264697,0.26944444444444443,-1.09
264698,0.2722222222222222,-1.085
264699,0.275,-1.085
264700,0.2777777777777778,-1.065
264701,0.28055555555555556,-1.05
264702,0.2833333333333333,-1.04
264703,0.2861111111111111,-1.025
264704,0.28888888888888886,-1.04
264705,0.2916666666666667,-1.01
264706,0.29444444444444445,-1.005
264707,0.2972222222222222,-1.0
264708,0.3,-0.995
264709,0.30277777777777776,-0.99
264710,0.3055555555555556,-0.99
264711,0.30833333333333335,-0.99
264712,0.3111111111111111,-0.98
264713,0.3138888888888889,-0.995
264714,0.31666666666666665,-1.0
264715,0.3194444444444444,-1.025
264716,0.32222222222222224,-1.02
264717,0.325,-1.025
264718,0.3277777777777778,-1.035
264719,0.33055555555555555,-1.045
264720,0.3333333333333333,-1.05
264721,0.33611111111111114,-1.065
264722,0.3388888888888889,-1.08
264723,0.3416666666666667,-1.095
264724,0.34444444444444444,-1.1
264725,0.3472222222222222,-1.125
264726,0.35,-1.16
264727,0.3527777777777778,-1.18
264728,0.35555555555555557,-1.195
264729,0.35833333333333334,-1.215
264730,0.3611111111111111,-1.205
264731,0.3638888888888889,-1.205
264732,0.36666666666666664,-1.19
264733,0.36944444444444446,-1.19
264734,0.37222222222222223,-1.17
264735,0.375,-1.165
264736,0.37777777777777777,-1.15
264737,0.38055555555555554,-1.17
264738,0.38333333333333336,-1.155
264739,0.3861111111111111,-1.165
264740,0.3888888888888889,-1.175
264741,0.39166666666666666,-1.165
264742,0.39444444444444443,-1.175
264743,0.3972222222222222,-1.175
264744,0.4,-1.175
264745,0.4027777777777778,-1.12
264746,0.40555555555555556,-1.045
264747,0.4083333333333333,-0.91
264748,0.4111111111111111,-0.685
264749,0.41388888888888886,-0.37
264750,0.4166666666666667,0.015
264751,0.41944444444444445,0.48
264752,0.4222222222222222,0.975
264753,0.425,1.465
264754,0.42777777777777776,1.935
264755,0.4305555555555556,2.29
264756,0.43333333333333335,2.51
264757,0.4361111111111111,2.555
264758,0.4388888888888889,2.45
264759,0.44166666666666665,2.09
264760,0.4444444444444444,1.48
264761,0.44722222222222224,0.84
264762,0.45,0.2
264763,0.4527777777777778,-0.44
264764,0.45555555555555555,-1.08
264765,0.4583333333333333,-1.67
264766,0.46111111111111114,-1.51
264767,0.4638888888888889,-1.25
264768,0.4666666666666667,-0.99
264769,0.46944444444444444,-0.83
264770,0.4722222222222222,-0.79
264771,0.475,-0.83
264772,0.4777777777777778,-0.91
264773,0.48055555555555557,-1.01
264774,0.48333333333333334,-1.065
264775,0.4861111111111111,-1.105
264776,0.4888888888888889,-1.125
264777,0.49166666666666664,-1.125
264778,0.49444444444444446,-1.105
264779,0.49722222222222223,-1.11
264780,0.5,-1.12
264781,0.5027777777777778,-1.115
264782,0.5055555555555555,-1.095
264783,0.5083333333333333,-1.095
264784,0.5111111111111111,-1.07
264785,0.5138888888888888,-1.08
264786,0.5166666666666667,-1.06
264787,0.5194444444444445,-1.065
264788,0.5222222222222223,-1.07
264789,0.525,-1.07
264790,0.5277777777777778,-1.07
264791,0.5305555555555556,-1.07
264792,0.5333333333333333,-1.07
264793,0.5361111111111111,-1.055
264794,0.5388888888888889,-1.04
264795,0.5416666666666666,-1.025
264796,0.5444444444444444,-1.015
264797,0.5472222222222223,-1.01
264798,0.55,-1.005
264799,0.5527777777777778,-0.995
264800,0.5555555555555556,-0.99
264801,0.5583333333333333,-0.975
264802,0.5611111111111111,-0.97
264803,0.5638888888888889,-0.98
264804,0.5666666666666667,-0.97
264805,0.5694444444444444,-0.945
264806,0.5722222222222222,-0.93
264807,0.575,-0.925
264808,0.5777777777777777,-0.91
264809,0.5805555555555556,-0.885
264810,0.5833333333333334,-0.86
264811,0.5861111111111111,-0.84
264812,0.5888888888888889,-0.825
264813,0.5916666666666667,-0.805
264814,0.5944444444444444,-0.79
264815,0.5972222222222222,-0.79
264816,0.6,-0.775
264817,0.6027777777777777,-0.75
264818,0.6055555555555555,-0.73
264819,0.6083333333333333,-0.705
264820,0.6111111111111112,-0.67
264821,0.6138888888888889,-0.655
264822,0.6166666666666667,-0.635
264823,0.6194444444444445,-0.605
264824,0.6222222222222222,-0.595
264825,0.625,-0.57
264826,0.6277777777777778,-0.54
264827,0.6305555555555555,-0.505
264828,0.6333333333333333,-0.475
264829,0.6361111111111111,-0.435
264830,0.6388888888888888,-0.405
264831,0.6416666666666667,-0.38
264832,0.6444444444444445,-0.345
264833,0.6472222222222223,-0.33
264834,0.65,-0.335
264835,0.6527777777777778,-0.32
264836,0.6555555555555556,-0.34
264837,0.6583333333333333,-0.33
264838,0.6611111111111111,-0.335
264839,0.6638888888888889,-0.345
264840,0.6666666666666666,-0.34
264841,0.6694444444444444,-0.335
264842,0.6722222222222223,-0.35
264843,0.675,-0.335
264844,0.6777777777777778,-0.34
264845,0.6805555555555556,-0.355
264846,0.6833333333333333,-0.375
264847,0.6861111111111111,-0.43
264848,0.6888888888888889,-0.48
264849,0.6916666666666667,-0.53
264850,0.6944444444444444,-0.56
264851,0.6972222222222222,-0.625
264852,0.7,-0.675
264853,0.7027777777777777,-0.715
264854,0.7055555555555556,-0.725
264855,0.7083333333333334,-0.76
264856,0.7111111111111111,-0.775
264857,0.7138888888888889,-0.795
264858,0.7166666666666667,-0.825
264859,0.7194444444444444,-0.855
264860,0.7222222222222222,-0.885
264861,0.725,-0.925
264862,0.7277777777777777,-0.965
264863,0.7305555555555555,-0.985
264864,0.7333333333333333,-1.005
264865,0.7361111111111112,-1.015
264866,0.7388888888888889,-1.015
264867,0.7416666666666667,-1.01
264868,0.7444444444444445,-1.015
264869,0.7472222222222222,-1.02
264870,0.75,-1.045
264871,0.7527777777777778,-1.05
264872,0.7555555555555555,-1.075
264873,0.7583333333333333,-1.08
264874,0.7611111111111111,-1.085
264875,0.7638888888888888,-1.085
264876,0.7666666666666667,-1.115
264877,0.7694444444444445,-1.105
264878,0.7722222222222223,-1.1
264879,0.775,-1.095
264880,0.7777777777777778,-1.07
264881,0.7805555555555556,-1.075
264882,0.7833333333333333,-1.08
264883,0.7861111111111111,-1.07
264884,0.7888888888888889,-1.08
264885,0.7916666666666666,-1.085
264886,0.7944444444444444,-1.085
264887,0.7972222222222223,-1.095
264888,0.8,-1.085
264889,0.8027777777777778,-1.07
264890,0.8055555555555556,-1.06
264891,0.8083333333333333,-1.055
264892,0.8111111111111111,-1.035
264893,0.8138888888888889,-1.02
264894,0.8166666666666667,-1.025
264895,0.8194444444444444,-1.015
264896,0.8222222222222222,-1.04
264897,0.825,-1.035
264898,0.8277777777777777,-1.05
264899,0.8305555555555556,-1.045
264900,0.8333333333333334,-1.05
264901,0.8361111111111111,-1.04
264902,0.8388888888888889,-1.035
264903,0.8416666666666667,-1.015
264904,0.8444444444444444,-1.015
264905,0.8472222222222222,-1.01
264906,0.85,-1.03
264907,0.8527777777777777,-1.025
264908,0.8555555555555555,-1.035
264909,0.8583333333333333,-1.03
264910,0.8611111111111112,-1.05
264911,0.8638888888888889,-1.05
264912,0.8666666666666667,-1.06
264913,0.8694444444444445,-1.05
264914,0.8722222222222222,-1.035
264915,0.875,-1.015
264916,0.8777777777777778,-1.005
264917,0.8805555555555555,-1.01
264918,0.8833333333333333,-1.01
264919,0.8861111111111111,-1.015
264920,0.8888888888888888,-1.05
264921,0.8916666666666667,-1.065
264922,0.8944444444444445,-1.065
264923,0.8972222222222223,-1.08
264924,0.9,-1.065
264925,0.9027777777777778,-1.065
264926,0.9055555555555556,-1.05
264927,0.9083333333333333,-1.045
264928,0.9111111111111111,-1.025
264929,0.9138888888888889,-1.045
264930,0.9166666666666666,-1.03
264931,0.9194444444444444,-1.05
264932,0.9222222222222223,-1.055
264933,0.925,-1.055
264934,0.9277777777777778,-1.07
264935,0.9305555555555556,-1.085
264936,0.9333333333333333,-1.105
264937,0.9361111111111111,-1.095
264938,0.9388888888888889,-1.08
264939,0.9416666666666667,-1.07
264940,0.9444444444444444,-1.045
264941,0.9472222222222222,-1.045
264942,0.95,-1.055
264943,0.9527777777777777,-1.07
264944,0.9555555555555556,-1.08
264945,0.9583333333333334,-1.1
264946,0.9611111111111111,-1.09
264947,0.9638888888888889,-1.08
264948,0.9666666666666667,-1.09
264949,0.9694444444444444,-1.085
264950,0.9722222222222222,-1.065
264951,0.975,-1.055
264952,0.9777777777777777,-1.065
264953,0.9805555555555555,-1.05
264954,0.9833333333333333,-1.055
264955,0.9861111111111112,-1.07
264956,0.9888888888888889,-1.085
264957,0.9916666666666667,-1.1
264958,0.9944444444444445,-1.095
264959,0.9972222222222222,-1.1
264960,1.0,-1.105
264961,1.0027777777777778,-1.085
264962,1.0055555555555555,-1.08
264963,1.0083333333333333,-1.07
264964,1.011111111111111,-1.07
264965,1.0138888888888888,-1.055
264966,1.0166666666666666,-1.065
264967,1.0194444444444444,-1.055
264968,1.0222222222222221,-1.05
264969,1.025,-1.06
264970,1.0277777777777777,-1.06
264971,1.0305555555555554,-1.04
264972,1.0333333333333334,-1.01
264973,1.0361111111111112,-1.005
264974,1.038888888888889,-0.98
264975,1.0416666666666667,-0.96
264976,1.0444444444444445,-0.97
264977,1.0472222222222223,-0.945
264978,1.05,-0.945
264979,1.0527777777777778,-0.95
264980,1.0555555555555556,-0.96
264981,1.0583333333333333,-0.97
264982,1.0611111111111111,-0.965
264983,1.0638888888888889,-0.965
264984,1.0666666666666667,-0.95
264985,1.0694444444444444,-0.925
264986,1.0722222222222222,-0.895
264987,1.075,-0.88
264988,1.0777777777777777,-0.865
264989,1.0805555555555555,-0.855
264990,1.0833333333333333,-0.855
264991,1.086111111111111,-0.89
264992,1.0888888888888888,-0.905
264993,1.0916666666666666,-0.92
264994,1.0944444444444446,-0.945
264995,1.0972222222222223,-0.955
264996,1.1,-0.96
264997,1.1027777777777779,-0.955
264998,1.1055555555555556,-0.945
264999,1.1083333333333334,-0.95
265000,1.1111111111111112,-0.94
265001,1.113888888888889,-0.95
265002,1.1166666666666667,-0.975
265003,1.1194444444444445,-1.01
265004,1.1222222222222222,-1.045
265005,1.125,-1.075
265006,1.1277777777777778,-1.1
265007,1.1305555555555555,-1.12
265008,1.1333333333333333,-1.135
265009,1.136111111111111,-1.14
265010,1.1388888888888888,-1.12
265011,1.1416666666666666,-1.11
265012,1.1444444444444444,-1.105
265013,1.1472222222222221,-1.095
265014,1.15,-1.1
265015,1.1527777777777777,-1.11
265016,1.1555555555555554,-1.12
265017,1.1583333333333334,-1.11
265018,1.1611111111111112,-1.115
265019,1.163888888888889,-1.105
265020,1.1666666666666667,-1.105
265021,1.1694444444444445,-1.105
265022,1.1722222222222223,-1.1
265023,1.175,-1.09
265024,1.1777777777777778,-1.085
265025,1.1805555555555556,-1.09
265026,1.1833333333333333,-1.1
265027,1.1861111111111111,-1.08
265028,1.1888888888888889,-1.06
265029,1.1916666666666667,-1.005
265030,1.1944444444444444,-0.925
265031,1.1972222222222222,-0.8
265032,1.2,-0.6
265033,1.2027777777777777,-0.36
265034,1.2055555555555555,-0.06
265035,1.2083333333333333,0.25
265036,1.211111111111111,0.6
265037,1.2138888888888888,0.98
265038,1.2166666666666666,1.405
265039,1.2194444444444446,1.835
265040,1.2222222222222223,2.215
265041,1.225,2.475
265042,1.2277777777777779,2.575
265043,1.2305555555555556,2.47
265044,1.2333333333333334,2.11
265045,1.2361111111111112,1.47
265046,1.238888888888889,0.83
265047,1.2416666666666667,0.19
265048,1.2444444444444445,-0.45
265049,1.2472222222222222,-1.09
265050,1.25,-1.505
265051,1.2527777777777778,-1.29
265052,1.2555555555555555,-1.015
265053,1.2583333333333333,-0.82
265054,1.261111111111111,-0.725
265055,1.2638888888888888,-0.73
265056,1.2666666666666666,-0.815
265057,1.2694444444444444,-0.91
265058,1.2722222222222221,-0.985
265059,1.275,-1.045
265060,1.2777777777777777,-1.055
265061,1.2805555555555554,-1.055
265062,1.2833333333333334,-1.05
265063,1.2861111111111112,-1.06
265064,1.288888888888889,-1.07
265065,1.2916666666666667,-1.07
265066,1.2944444444444445,-1.08
265067,1.2972222222222223,-1.085
265068,1.3,-1.08
265069,1.3027777777777778,-1.085
265070,1.3055555555555556,-1.065
265071,1.3083333333333333,-1.06
265072,1.3111111111111111,-1.045
265073,1.3138888888888889,-1.05
265074,1.3166666666666667,-1.025
265075,1.3194444444444444,-1.03
265076,1.3222222222222222,-1.035
265077,1.325,-1.04
265078,1.3277777777777777,-1.035
265079,1.3305555555555555,-1.035
265080,1.3333333333333333,-1.04
265081,1.336111111111111,-1.03
265082,1.3388888888888888,-1.015
265083,1.3416666666666666,-1.0
265084,1.3444444444444446,-1.0
265085,1.3472222222222223,-0.98
265086,1.35,-0.98
265087,1.3527777777777779,-0.985
265088,1.3555555555555556,-1.005
265089,1.3583333333333334,-1.0
265090,1.3611111111111112,-0.985
265091,1.363888888888889,-0.985
265092,1.3666666666666667,-0.97
265093,1.3694444444444445,-0.95
265094,1.3722222222222222,-0.925
265095,1.375,-0.905
265096,1.3777777777777778,-0.895
265097,1.3805555555555555,-0.88
265098,1.3833333333333333,-0.88
265099,1.386111111111111,-0.875
265100,1.3888888888888888,-0.855
265101,1.3916666666666666,-0.84
265102,1.3944444444444444,-0.835
265103,1.3972222222222221,-0.81
265104,1.4,-0.805
265105,1.4027777777777777,-0.785
265106,1.4055555555555554,-0.755
265107,1.4083333333333334,-0.715
265108,1.4111111111111112,-0.685
265109,1.413888888888889,-0.655
265110,1.4166666666666667,-0.63
265111,1.4194444444444445,-0.61
265112,1.4222222222222223,-0.585
265113,1.425,-0.565
265114,1.4277777777777778,-0.54
265115,1.4305555555555556,-0.52
265116,1.4333333333333333,-0.5
265117,1.4361111111111111,-0.46
265118,1.4388888888888889,-0.43
265119,1.4416666666666667,-0.41
265120,1.4444444444444444,-0.38
265121,1.4472222222222222,-0.34
265122,1.45,-0.325
265123,1.4527777777777777,-0.325
265124,1.4555555555555555,-0.305
265125,1.4583333333333333,-0.31
265126,1.461111111111111,-0.29
265127,1.4638888888888888,-0.3
265128,1.4666666666666666,-0.29
265129,1.4694444444444446,-0.28
265130,1.4722222222222223,-0.29
265131,1.475,-0.285
265132,1.4777777777777779,-0.28
265133,1.4805555555555556,-0.29
265134,1.4833333333333334,-0.31
265135,1.4861111111111112,-0.345
265136,1.488888888888889,-0.395
265137,1.4916666666666667,-0.43
265138,1.4944444444444445,-0.455
265139,1.4972222222222222,-0.51
265140,1.5,-0.535
265141,1.5027777777777778,-0.57
265142,1.5055555555555555,-0.6
265143,1.5083333333333333,-0.64
265144,1.511111111111111,-0.67
265145,1.5138888888888888,-0.715
265146,1.5166666666666666,-0.755
265147,1.5194444444444444,-0.795
265148,1.5222222222222221,-0.86
265149,1.525,-0.9
265150,1.5277777777777777,-0.925
265151,1.5305555555555554,-0.96
265152,1.5333333333333334,-0.985
265153,1.5361111111111112,-1.0
265154,1.538888888888889,-1.01
265155,1.5416666666666667,-1.02
265156,1.5444444444444445,-1.025
265157,1.5472222222222223,-1.035
265158,1.55,-1.04
265159,1.5527777777777778,-1.05
265160,1.5555555555555556,-1.06
265161,1.5583333333333333,-1.08
265162,1.5611111111111111,-1.085
265163,1.5638888888888889,-1.105
265164,1.5666666666666667,-1.095
265165,1.5694444444444444,-1.12
265166,1.5722222222222222,-1.1
265167,1.575,-1.1
265168,1.5777777777777777,-1.1
265169,1.5805555555555555,-1.075
265170,1.5833333333333333,-1.09
265171,1.586111111111111,-1.095
265172,1.5888888888888888,-1.11
265173,1.5916666666666666,-1.115
265174,1.5944444444444446,-1.115
265175,1.5972222222222223,-1.11
265176,1.6,-1.11
265177,1.6027777777777779,-1.095
265178,1.6055555555555556,-1.1
265179,1.6083333333333334,-1.09
265180,1.6111111111111112,-1.07
265181,1.613888888888889,-1.05
265182,1.6166666666666667,-1.055
265183,1.6194444444444445,-1.06
265184,1.6222222222222222,-1.07
265185,1.625,-1.08
265186,1.6277777777777778,-1.095
265187,1.6305555555555555,-1.095
265188,1.6333333333333333,-1.105
265189,1.636111111111111,-1.095
265190,1.6388888888888888,-1.075
265191,1.6416666666666666,-1.085
265192,1.6444444444444444,-1.07
265193,1.6472222222222221,-1.045
265194,1.65,-1.055
265195,1.6527777777777777,-1.06
265196,1.6555555555555554,-1.07
265197,1.6583333333333334,-1.07
265198,1.6611111111111112,-1.085
265199,1.663888888888889,-1.1
265200,1.6666666666666667,-1.105
265201,1.6694444444444445,-1.11
265202,1.6722222222222223,-1.105
265203,1.675,-1.095
265204,1.6777777777777778,-1.095
265205,1.6805555555555556,-1.09
265206,1.6833333333333333,-1.1
265207,1.6861111111111111,-1.11
265208,1.6888888888888889,-1.11
265209,1.6916666666666667,-1.125
265210,1.6944444444444444,-1.13
265211,1.6972222222222222,-1.14
265212,1.7,-1.14
265213,1.7027777777777777,-1.16
265214,1.7055555555555555,-1.165
265215,1.7083333333333333,-1.15
265216,1.711111111111111,-1.15
265217,1.7138888888888888,-1.13
265218,1.7166666666666666,-1.145
265219,1.7194444444444446,-1.14
265220,1.7222222222222223,-1.14
265221,1.725,-1.165
265222,1.7277777777777779,-1.17
265223,1.7305555555555556,-1.18
265224,1.7333333333333334,-1.17
265225,1.7361111111111112,-1.185
265226,1.738888888888889,-1.16
265227,1.7416666666666667,-1.175
265228,1.7444444444444445,-1.145
265229,1.7472222222222222,-1.14
265230,1.75,-1.155
265231,1.7527777777777778,-1.175
265232,1.7555555555555555,-1.17
265233,1.7583333333333333,-1.185
265234,1.761111111111111,-1.195
265235,1.7638888888888888,-1.2
265236,1.7666666666666666,-1.2
265237,1.7694444444444444,-1.2
265238,1.7722222222222221,-1.195
265239,1.775,-1.19
265240,1.7777777777777777,-1.165
265241,1.7805555555555554,-1.145
265242,1.7833333333333334,-1.15
265243,1.7861111111111112,-1.155
265244,1.788888888888889,-1.17
265245,1.7916666666666667,-1.175
265246,1.7944444444444445,-1.2
265247,1.7972222222222223,-1.21
265248,1.8,-1.205
265249,1.8027777777777778,-1.2
265250,1.8055555555555556,-1.19
265251,1.8083333333333333,-1.155
265252,1.8111111111111111,-1.125
265253,1.8138888888888889,-1.105
265254,1.8166666666666667,-1.1
265255,1.8194444444444444,-1.1
265256,1.8222222222222222,-1.09
265257,1.825,-1.105
265258,1.8277777777777777,-1.11
265259,1.8305555555555555,-1.11
265260,1.8333333333333333,-1.14
265261,1.836111111111111,-1.115
265262,1.8388888888888888,-1.1
265263,1.8416666666666666,-1.075
265264,1.8444444444444446,-1.06
265265,1.8472222222222223,-1.035
265266,1.85,-1.025
265267,1.8527777777777779,-1.01
265268,1.8555555555555556,-1.02
265269,1.8583333333333334,-1.025
265270,1.8611111111111112,-1.03
265271,1.863888888888889,-1.04
265272,1.8666666666666667,-1.05
265273,1.8694444444444445,-1.055
265274,1.8722222222222222,-1.065
265275,1.875,-1.08
265276,1.8777777777777778,-1.095
265277,1.8805555555555555,-1.085
265278,1.8833333333333333,-1.075
265279,1.886111111111111,-1.09
265280,1.8888888888888888,-1.125
265281,1.8916666666666666,-1.14
265282,1.8944444444444444,-1.165
265283,1.8972222222222221,-1.185
265284,1.9,-1.205
265285,1.9027777777777777,-1.23
265286,1.9055555555555554,-1.23
265287,1.9083333333333334,-1.245
265288,1.9111111111111112,-1.235
265289,1.913888888888889,-1.24
265290,1.9166666666666667,-1.245
265291,1.9194444444444445,-1.235
265292,1.9222222222222223,-1.255
265293,1.925,-1.26
265294,1.9277777777777778,-1.275
265295,1.9305555555555556,-1.285
265296,1.9333333333333333,-1.285
265297,1.9361111111111111,-1.27
265298,1.9388888888888889,-1.255
265299,1.9416666666666667,-1.24
265300,1.9444444444444444,-1.225
265301,1.9472222222222222,-1.225
265302,1.95,-1.23
265303,1.9527777777777777,-1.22
265304,1.9555555555555555,-1.23
265305,1.9583333333333333,-1.205
265306,1.961111111111111,-1.19
265307,1.9638888888888888,-1.12
265308,1.9666666666666666,-1.005
265309,1.9694444444444446,-0.82
265310,1.9722222222222223,-0.52
265311,1.975,-0.16
265312,1.9777777777777779,0.28
265313,1.9805555555555556,0.76
265314,1.9833333333333334,1.25
265315,1.9861111111111112,1.725
265316,1.988888888888889,2.11
265317,1.9916666666666667,2.385
265318,1.9944444444444445,2.515
265319,1.9972222222222222,2.495
265320,2.0,2.315
265321,2.0027777777777778,1.945
265322,2.0055555555555555,1.37
265323,2.0083333333333333,0.73
265324,2.011111111111111,0.09
265325,2.013888888888889,-0.55
265326,2.0166666666666666,-1.19
265327,2.0194444444444444,-1.79
265328,2.022222222222222,-1.72
265329,2.025,-1.475
265330,2.0277777777777777,-1.225
265331,2.0305555555555554,-1.03
265332,2.033333333333333,-0.945
265333,2.036111111111111,-0.97
265334,2.0388888888888888,-1.03
265335,2.0416666666666665,-1.115
265336,2.0444444444444443,-1.185
265337,2.047222222222222,-1.24
265338,2.05,-1.245
265339,2.0527777777777776,-1.245
265340,2.0555555555555554,-1.235
265341,2.058333333333333,-1.24
265342,2.061111111111111,-1.25
265343,2.063888888888889,-1.275
265344,2.066666666666667,-1.27
265345,2.0694444444444446,-1.245
265346,2.0722222222222224,-1.245
265347,2.075,-1.24
265348,2.077777777777778,-1.22
265349,2.0805555555555557,-1.215
265350,2.0833333333333335,-1.2
265351,2.0861111111111112,-1.19
265352,2.088888888888889,-1.195
265353,2.091666666666667,-1.185
265354,2.0944444444444446,-1.2
265355,2.0972222222222223,-1.205
265356,2.1,-1.21
265357,2.102777777777778,-1.195
265358,2.1055555555555556,-1.18
265359,2.1083333333333334,-1.18
265360,2.111111111111111,-1.155
265361,2.113888888888889,-1.14
265362,2.1166666666666667,-1.12
265363,2.1194444444444445,-1.135
265364,2.1222222222222222,-1.13
265365,2.125,-1.135
265366,2.1277777777777778,-1.135
265367,2.1305555555555555,-1.135
265368,2.1333333333333333,-1.12
265369,2.136111111111111,-1.11
265370,2.138888888888889,-1.09
265371,2.1416666666666666,-1.065
265372,2.1444444444444444,-1.05
265373,2.147222222222222,-1.025
265374,2.15,-1.025
265375,2.1527777777777777,-1.015
265376,2.1555555555555554,-1.005
265377,2.158333333333333,-1.005
265378,2.161111111111111,-1.0
265379,2.1638888888888888,-0.995
265380,2.1666666666666665,-0.965
265381,2.1694444444444443,-0.95
265382,2.172222222222222,-0.915
265383,2.175,-0.88
265384,2.1777777777777776,-0.845
265385,2.1805555555555554,-0.825
265386,2.183333333333333,-0.8
265387,2.186111111111111,-0.77
265388,2.188888888888889,-0.77
265389,2.191666666666667,-0.74
265390,2.1944444444444446,-0.735
265391,2.1972222222222224,-0.69
265392,2.2,-0.665
265393,2.202777777777778,-0.635
265394,2.2055555555555557,-0.595
265395,2.2083333333333335,-0.565
265396,2.2111111111111112,-0.51
265397,2.213888888888889,-0.495
265398,2.216666666666667,-0.495
265399,2.2194444444444446,-0.48
265400,2.2222222222222223,-0.47
265401,2.225,-0.475
265402,2.227777777777778,-0.48
265403,2.2305555555555556,-0.485
265404,2.2333333333333334,-0.485
265405,2.236111111111111,-0.485
265406,2.238888888888889,-0.495
265407,2.2416666666666667,-0.475
265408,2.2444444444444445,-0.48
265409,2.2472222222222222,-0.495
265410,2.25,-0.52
265411,2.2527777777777778,-0.565
265412,2.2555555555555555,-0.61
265413,2.2583333333333333,-0.67
265414,2.261111111111111,-0.715
265415,2.263888888888889,-0.765
265416,2.2666666666666666,-0.82
265417,2.2694444444444444,-0.845
265418,2.272222222222222,-0.885
265419,2.275,-0.905
265420,2.2777777777777777,-0.93
265421,2.2805555555555554,-0.97
265422,2.283333333333333,-0.985
265423,2.286111111111111,-1.01
265424,2.2888888888888888,-1.045
265425,2.2916666666666665,-1.085
265426,2.2944444444444443,-1.13
265427,2.297222222222222,-1.155
265428,2.3,-1.18
265429,2.3027777777777776,-1.165
265430,2.3055555555555554,-1.175
265431,2.308333333333333,-1.18
265432,2.311111111111111,-1.18
265433,2.313888888888889,-1.17
265434,2.316666666666667,-1.2
265435,2.3194444444444446,-1.2
265436,2.3222222222222224,-1.22
265437,2.325,-1.235
265438,2.327777777777778,-1.265
265439,2.3305555555555557,-1.26
265440,2.3333333333333335,-1.27
265441,2.3361111111111112,-1.26
265442,2.338888888888889,-1.245
265443,2.341666666666667,-1.255
265444,2.3444444444444446,-1.245
265445,2.3472222222222223,-1.23
265446,2.35,-1.23
265447,2.352777777777778,-1.23
265448,2.3555555555555556,-1.25
265449,2.3583333333333334,-1.245
265450,2.361111111111111,-1.255
265451,2.363888888888889,-1.255
265452,2.3666666666666667,-1.24
265453,2.3694444444444445,-1.23
265454,2.3722222222222222,-1.235
265455,2.375,-1.195
265456,2.3777777777777778,-1.19
265457,2.3805555555555555,-1.175
265458,2.3833333333333333,-1.2
265459,2.386111111111111,-1.18
265460,2.388888888888889,-1.185
265461,2.3916666666666666,-1.19
265462,2.3944444444444444,-1.185
265463,2.397222222222222,-1.185
265464,2.4,-1.195
265465,2.4027777777777777,-1.18
265466,2.4055555555555554,-1.17
265467,2.408333333333333,-1.155
265468,2.411111111111111,-1.145
265469,2.4138888888888888,-1.145
265470,2.4166666666666665,-1.155
265471,2.4194444444444443,-1.16
265472,2.422222222222222,-1.175
265473,2.425,-1.205
265474,2.4277777777777776,-1.215
265475,2.4305555555555554,-1.2
265476,2.433333333333333,-1.205
265477,2.436111111111111,-1.195
265478,2.438888888888889,-1.195
265479,2.441666666666667,-1.185
265480,2.4444444444444446,-1.19
265481,2.4472222222222224,-1.175
265482,2.45,-1.18
265483,2.452777777777778,-1.18
265484,2.4555555555555557,-1.185
265485,2.4583333333333335,-1.185
265486,2.4611111111111112,-1.2
265487,2.463888888888889,-1.21
265488,2.466666666666667,-1.22
265489,2.4694444444444446,-1.215
265490,2.4722222222222223,-1.215
265491,2.475,-1.21
265492,2.477777777777778,-1.195
265493,2.4805555555555556,-1.205
265494,2.4833333333333334,-1.205
265495,2.486111111111111,-1.2
265496,2.488888888888889,-1.205
265497,2.4916666666666667,-1.22
265498,2.4944444444444445,-1.225
265499,2.4972222222222222,-1.23
265500,2.5,-1.225
265501,2.5027777777777778,-1.225
265502,2.5055555555555555,-1.22
265503,2.5083333333333333,-1.23
265504,2.511111111111111,-1.21
265505,2.513888888888889,-1.205
265506,2.5166666666666666,-1.22
265507,2.5194444444444444,-1.205
265508,2.522222222222222,-1.225
265509,2.525,-1.22
265510,2.5277777777777777,-1.215
265511,2.5305555555555554,-1.215
265512,2.533333333333333,-1.225
265513,2.536111111111111,-1.215
265514,2.5388888888888888,-1.205
265515,2.5416666666666665,-1.185
265516,2.5444444444444443,-1.195
265517,2.547222222222222,-1.205
265518,2.55,-1.195
265519,2.5527777777777776,-1.215
265520,2.5555555555555554,-1.205
265521,2.558333333333333,-1.22
265522,2.561111111111111,-1.215
265523,2.563888888888889,-1.2
265524,2.566666666666667,-1.21
265525,2.5694444444444446,-1.205
265526,2.5722222222222224,-1.19
265527,2.575,-1.185
265528,2.577777777777778,-1.155
265529,2.5805555555555557,-1.145
265530,2.5833333333333335,-1.115
265531,2.5861111111111112,-1.095
265532,2.588888888888889,-1.095
265533,2.591666666666667,-1.095
265534,2.5944444444444446,-1.105
265535,2.5972222222222223,-1.115
265536,2.6,-1.11
265537,2.602777777777778,-1.11
265538,2.6055555555555556,-1.095
265539,2.6083333333333334,-1.085
265540,2.611111111111111,-1.055
265541,2.613888888888889,-1.03
265542,2.6166666666666667,-1.005
265543,2.6194444444444445,-0.99
265544,2.6222222222222222,-0.99
265545,2.625,-0.99
265546,2.6277777777777778,-0.995
265547,2.6305555555555555,-1.005
265548,2.6333333333333333,-1.025
265549,2.636111111111111,-1.02
265550,2.638888888888889,-1.015
265551,2.6416666666666666,-1.015
265552,2.6444444444444444,-1.02
265553,2.647222222222222,-1.005
265554,2.65,-1.01
265555,2.6527777777777777,-1.02
265556,2.6555555555555554,-1.04
265557,2.658333333333333,-1.06
265558,2.661111111111111,-1.09
265559,2.6638888888888888,-1.125
265560,2.6666666666666665,-1.135
265561,2.6694444444444443,-1.16
265562,2.672222222222222,-1.17
265563,2.675,-1.175
265564,2.6777777777777776,-1.185
265565,2.6805555555555554,-1.185
265566,2.683333333333333,-1.185
265567,2.686111111111111,-1.19
265568,2.688888888888889,-1.175
265569,2.691666666666667,-1.185
265570,2.6944444444444446,-1.18
265571,2.6972222222222224,-1.175
265572,2.7,-1.18
265573,2.702777777777778,-1.165
265574,2.7055555555555557,-1.155
265575,2.7083333333333335,-1.15
265576,2.7111111111111112,-1.15
265577,2.713888888888889,-1.145
265578,2.716666666666667,-1.155
265579,2.7194444444444446,-1.145
265580,2.7222222222222223,-1.15
265581,2.725,-1.095
265582,2.727777777777778,-1.03
265583,2.7305555555555556,-0.895
265584,2.7333333333333334,-0.685
265585,2.736111111111111,-0.375
265586,2.738888888888889,0.035
265587,2.7416666666666667,0.51
265588,2.7444444444444445,1.025
265589,2.7472222222222222,1.545
265590,2.75,2.025
265591,2.7527777777777778,2.375
265592,2.7555555555555555,2.58
265593,2.7583333333333333,2.6
265594,2.761111111111111,2.455
265595,2.763888888888889,2.075
265596,2.7666666666666666,1.44
265597,2.7694444444444444,0.8
265598,2.772222222222222,0.16
265599,2.775,-0.48
265600,2.7777777777777777,-1.12
265601,2.7805555555555554,-1.64
265602,2.783333333333333,-1.465
265603,2.786111111111111,-1.215
265604,2.7888888888888888,-0.95
265605,2.7916666666666665,-0.8
265606,2.7944444444444443,-0.785
265607,2.797222222222222,-0.85
265608,2.8,-0.95
265609,2.8027777777777776,-1.045
265610,2.8055555555555554,-1.1
265611,2.808333333333333,-1.125
265612,2.811111111111111,-1.125
265613,2.813888888888889,-1.08
265614,2.816666666666667,-1.075
265615,2.8194444444444446,-1.08
265616,2.8222222222222224,-1.075
265617,2.825,-1.09
265618,2.827777777777778,-1.095
265619,2.8305555555555557,-1.09
265620,2.8333333333333335,-1.09
265621,2.8361111111111112,-1.08
265622,2.838888888888889,-1.065
265623,2.841666666666667,-1.05
265624,2.8444444444444446,-1.04
265625,2.8472222222222223,-1.02
265626,2.85,-1.015
265627,2.852777777777778,-1.015
265628,2.8555555555555556,-1.025
265629,2.8583333333333334,-1.025
265630,2.861111111111111,-1.03
265631,2.863888888888889,-1.025
265632,2.8666666666666667,-1.015
265633,2.8694444444444445,-1.01
265634,2.8722222222222222,-0.985
265635,2.875,-0.965
265636,2.8777777777777778,-0.945
265637,2.8805555555555555,-0.94
265638,2.8833333333333333,-0.945
265639,2.886111111111111,-0.94
265640,2.888888888888889,-0.945
265641,2.8916666666666666,-0.955
265642,2.8944444444444444,-0.96
265643,2.897222222222222,-0.955
265644,2.9,-0.94
265645,2.9027777777777777,-0.925
265646,2.9055555555555554,-0.89
265647,2.908333333333333,-0.87
265648,2.911111111111111,-0.83
265649,2.9138888888888888,-0.825
265650,2.9166666666666665,-0.79
265651,2.9194444444444443,-0.775
265652,2.922222222222222,-0.775
265653,2.925,-0.75
265654,2.9277777777777776,-0.75
265655,2.9305555555555554,-0.73
265656,2.933333333333333,-0.695
265657,2.936111111111111,-0.675
265658,2.938888888888889,-0.64
265659,2.941666666666667,-0.62
265660,2.9444444444444446,-0.58
265661,2.9472222222222224,-0.55
265662,2.95,-0.53
265663,2.952777777777778,-0.51
265664,2.9555555555555557,-0.49
265665,2.9583333333333335,-0.465
265666,2.9611111111111112,-0.455
265667,2.963888888888889,-0.4
265668,2.966666666666667,-0.375
265669,2.9694444444444446,-0.35
265670,2.9722222222222223,-0.315
265671,2.975,-0.28
265672,2.977777777777778,-0.26
265673,2.9805555555555556,-0.235
265674,2.9833333333333334,-0.24
265675,2.986111111111111,-0.23
265676,2.988888888888889,-0.25
265677,2.9916666666666667,-0.25
265678,2.9944444444444445,-0.265
265679,2.9972222222222222,-0.28
265680,3.0,-0.295
265681,3.0027777777777778,-0.3
265682,3.0055555555555555,-0.31
265683,3.0083333333333333,-0.32
265684,3.011111111111111,-0.335
265685,3.013888888888889,-0.37
265686,3.0166666666666666,-0.41
265687,3.0194444444444444,-0.46
265688,3.022222222222222,-0.515
265689,3.025,-0.58
265690,3.0277777777777777,-0.655
265691,3.0305555555555554,-0.695
265692,3.033333333333333,-0.74
265693,3.036111111111111,-0.775
265694,3.0388888888888888,-0.8
265695,3.0416666666666665,-0.82
265696,3.0444444444444443,-0.86
265697,3.047222222222222,-0.86
265698,3.05,-0.89
265699,3.0527777777777776,-0.92
265700,3.0555555555555554,-0.945
265701,3.058333333333333,-0.97
265702,3.061111111111111,-0.99
265703,3.063888888888889,-0.975
265704,3.066666666666667,-0.99
265705,3.0694444444444446,-1.005
265706,3.0722222222222224,-1.005
265707,3.075,-1.015
265708,3.077777777777778,-1.025
265709,3.0805555555555557,-1.025
265710,3.0833333333333335,-1.025
265711,3.0861111111111112,-1.03
265712,3.088888888888889,-1.04
265713,3.091666666666667,-1.07
265714,3.0944444444444446,-1.075
265715,3.0972222222222223,-1.07
265716,3.1,-1.085
265717,3.102777777777778,-1.09
265718,3.1055555555555556,-1.06
265719,3.1083333333333334,-1.045
265720,3.111111111111111,-1.04
265721,3.113888888888889,-1.02
265722,3.1166666666666667,-1.015
265723,3.1194444444444445,-1.01
265724,3.1222222222222222,-1.035
265725,3.125,-1.03
265726,3.1277777777777778,-1.03
265727,3.1305555555555555,-1.045
265728,3.1333333333333333,-1.055
265729,3.136111111111111,-1.04
265730,3.138888888888889,-1.03
265731,3.1416666666666666,-1.015
265732,3.1444444444444444,-0.995
265733,3.147222222222222,-0.99
265734,3.15,-0.98
265735,3.1527777777777777,-0.975
265736,3.1555555555555554,-0.97
265737,3.158333333333333,-0.955
265738,3.161111111111111,-0.955
265739,3.1638888888888888,-0.965
265740,3.1666666666666665,-0.965
265741,3.1694444444444443,-0.965
265742,3.172222222222222,-0.955
265743,3.175,-0.95
265744,3.1777777777777776,-0.93
265745,3.1805555555555554,-0.925
265746,3.183333333333333,-0.935
265747,3.186111111111111,-0.935
265748,3.188888888888889,-0.95
265749,3.191666666666667,-0.96
265750,3.1944444444444446,-0.965
265751,3.1972222222222224,-0.975
265752,3.2,-0.97
265753,3.202777777777778,-0.99
265754,3.2055555555555557,-0.99
265755,3.2083333333333335,-0.97
265756,3.2111111111111112,-0.975
265757,3.213888888888889,-0.95
265758,3.216666666666667,-0.975
265759,3.2194444444444446,-0.98
265760,3.2222222222222223,-0.995
265761,3.225,-1.005
265762,3.227777777777778,-1.005
265763,3.2305555555555556,-1.005
265764,3.2333333333333334,-0.995
265765,3.236111111111111,-0.995
265766,3.238888888888889,-0.99
265767,3.2416666666666667,-0.99
265768,3.2444444444444445,-0.99
265769,3.2472222222222222,-0.985
265770,3.25,-0.975
265771,3.2527777777777778,-0.99
265772,3.2555555555555555,-1.015
265773,3.2583333333333333,-1.02
265774,3.261111111111111,-1.025
265775,3.263888888888889,-1.045
265776,3.2666666666666666,-1.03
265777,3.2694444444444444,-1.025
265778,3.272222222222222,-1.015
265779,3.275,-1.0
265780,3.2777777777777777,-0.995
265781,3.2805555555555554,-0.98
265782,3.283333333333333,-0.99
265783,3.286111111111111,-1.0
265784,3.2888888888888888,-1.0
265785,3.2916666666666665,-1.01
265786,3.2944444444444443,-1.045
265787,3.297222222222222,-1.035
265788,3.3,-1.04
265789,3.3027777777777776,-1.065
265790,3.3055555555555554,-1.06
265791,3.308333333333333,-1.05
265792,3.311111111111111,-1.04
265793,3.313888888888889,-1.03
265794,3.316666666666667,-1.045
265795,3.3194444444444446,-1.045
265796,3.3222222222222224,-1.065
265797,3.325,-1.05
265798,3.327777777777778,-1.05
265799,3.3305555555555557,-1.05
265800,3.3333333333333335,-1.05
265801,3.3361111111111112,-1.055
265802,3.338888888888889,-1.05
265803,3.341666666666667,-1.03
265804,3.3444444444444446,-1.035
265805,3.3472222222222223,-1.015
265806,3.35,-1.01
265807,3.352777777777778,-1.02
265808,3.3555555555555556,-1.02
265809,3.3583333333333334,-0.995
265810,3.361111111111111,-1.005
265811,3.363888888888889,-0.985
265812,3.3666666666666667,-0.965
265813,3.3694444444444445,-0.95
265814,3.3722222222222222,-0.95
265815,3.375,-0.93
265816,3.3777777777777778,-0.92
265817,3.3805555555555555,-0.93
265818,3.3833333333333333,-0.93
265819,3.386111111111111,-0.935
265820,3.388888888888889,-0.91
265821,3.3916666666666666,-0.91
265822,3.3944444444444444,-0.925
265823,3.397222222222222,-0.925
265824,3.4,-0.9
265825,3.4027777777777777,-0.895
265826,3.4055555555555554,-0.865
265827,3.408333333333333,-0.845
265828,3.411111111111111,-0.845
265829,3.4138888888888888,-0.855
265830,3.4166666666666665,-0.88
265831,3.4194444444444443,-0.87
265832,3.422222222222222,-0.89
265833,3.425,-0.915
265834,3.4277777777777776,-0.94
265835,3.4305555555555554,-0.92
265836,3.433333333333333,-0.925
265837,3.436111111111111,-0.93
265838,3.438888888888889,-0.95
265839,3.441666666666667,-0.98
265840,3.4444444444444446,-0.995
265841,3.4472222222222224,-1.02
265842,3.45,-1.035
265843,3.452777777777778,-1.06
265844,3.4555555555555557,-1.08
265845,3.4583333333333335,-1.085
265846,3.4611111111111112,-1.105
265847,3.463888888888889,-1.105
265848,3.466666666666667,-1.095
265849,3.4694444444444446,-1.085
265850,3.4722222222222223,-1.075
265851,3.475,-1.065
265852,3.477777777777778,-1.06
265853,3.4805555555555556,-1.06
265854,3.4833333333333334,-1.055
265855,3.486111111111111,-1.06
265856,3.488888888888889,-1.07
265857,3.4916666666666667,-1.06
265858,3.4944444444444445,-1.085
265859,3.4972222222222222,-1.09
265860,3.5,-1.105
265861,3.5027777777777778,-1.095
265862,3.5055555555555555,-1.075
265863,3.5083333333333333,-1.035
265864,3.511111111111111,-0.99
265865,3.513888888888889,-0.895
265866,3.5166666666666666,-0.74
265867,3.5194444444444444,-0.53
265868,3.522222222222222,-0.255
265869,3.525,0.06
265870,3.5277777777777777,0.435
265871,3.5305555555555554,0.845
265872,3.533333333333333,1.305
265873,3.536111111111111,1.78
265874,3.5388888888888888,2.185
265875,3.5416666666666665,2.495
265876,3.5444444444444443,2.635
265877,3.547222222222222,2.605
265878,3.55,2.375
265879,3.5527777777777776,1.875
265880,3.5555555555555554,1.235
265881,3.558333333333333,0.595
265882,3.561111111111111,-0.045
265883,3.563888888888889,-0.685
265884,3.566666666666667,-1.325
265885,3.5694444444444446,-1.41
265886,3.5722222222222224,-1.135
265887,3.575,-0.865
265888,3.577777777777778,-0.675
265889,3.5805555555555557,-0.625
265890,3.5833333333333335,-0.7
265891,3.5861111111111112,-0.815
265892,3.588888888888889,-0.925
265893,3.591666666666667,-1.03
265894,3.5944444444444446,-1.065
265895,3.5972222222222223,-1.085
265896,3.6,-1.075
265897,3.602777777777778,-1.06
265898,3.6055555555555556,-1.04
265899,3.6083333333333334,-1.025
265900,3.611111111111111,-1.0
265901,3.613888888888889,-1.01
265902,3.6166666666666667,-1.02
265903,3.6194444444444445,-1.025
265904,3.6222222222222222,-1.03
265905,3.625,-1.035
265906,3.6277777777777778,-1.04
265907,3.6305555555555555,-1.06
265908,3.6333333333333333,-1.05
265909,3.636111111111111,-1.04
265910,3.638888888888889,-1.04
265911,3.6416666666666666,-1.005
265912,3.6444444444444444,-1.005
265913,3.647222222222222,-0.985
265914,3.65,-0.975
265915,3.6527777777777777,-0.965
265916,3.6555555555555554,-0.975
265917,3.658333333333333,-0.97
265918,3.661111111111111,-0.965
265919,3.6638888888888888,-0.965
265920,3.6666666666666665,-0.96
265921,3.6694444444444443,-0.95
265922,3.672222222222222,-0.94
265923,3.675,-0.925
265924,3.6777777777777776,-0.915
265925,3.6805555555555554,-0.88
265926,3.683333333333333,-0.88
265927,3.686111111111111,-0.89
265928,3.688888888888889,-0.86
265929,3.691666666666667,-0.87
265930,3.6944444444444446,-0.855
265931,3.6972222222222224,-0.85
265932,3.7,-0.83
265933,3.702777777777778,-0.81
265934,3.7055555555555557,-0.775
265935,3.7083333333333335,-0.75
265936,3.7111111111111112,-0.73
265937,3.713888888888889,-0.695
265938,3.716666666666667,-0.67
265939,3.7194444444444446,-0.665
265940,3.7222222222222223,-0.62
265941,3.725,-0.6
265942,3.727777777777778,-0.6
265943,3.7305555555555556,-0.575
265944,3.7333333333333334,-0.545
265945,3.736111111111111,-0.525
265946,3.738888888888889,-0.49
265947,3.7416666666666667,-0.45
265948,3.7444444444444445,-0.425
265949,3.7472222222222222,-0.39
265950,3.75,-0.36
265951,3.7527777777777778,-0.32
265952,3.7555555555555555,-0.305
265953,3.7583333333333333,-0.3
265954,3.761111111111111,-0.295
265955,3.763888888888889,-0.275
265956,3.7666666666666666,-0.27
265957,3.7694444444444444,-0.245
265958,3.772222222222222,-0.225
265959,3.775,-0.22
265960,3.7777777777777777,-0.23
265961,3.7805555555555554,-0.225
265962,3.783333333333333,-0.235
265963,3.786111111111111,-0.235
265964,3.7888888888888888,-0.26
265965,3.7916666666666665,-0.285
265966,3.7944444444444443,-0.325
265967,3.797222222222222,-0.37
265968,3.8,-0.41
265969,3.8027777777777776,-0.445
265970,3.8055555555555554,-0.48
265971,3.808333333333333,-0.52
265972,3.811111111111111,-0.565
265973,3.813888888888889,-0.625
265974,3.816666666666667,-0.66
265975,3.8194444444444446,-0.725
265976,3.8222222222222224,-0.755
265977,3.825,-0.795
265978,3.827777777777778,-0.83
265979,3.8305555555555557,-0.87
265980,3.8333333333333335,-0.895
265981,3.8361111111111112,-0.925
265982,3.838888888888889,-0.94
265983,3.841666666666667,-0.95
265984,3.8444444444444446,-0.98
265985,3.8472222222222223,-0.965
265986,3.85,-0.98
265987,3.852777777777778,-1.0
265988,3.8555555555555556,-1.015
265989,3.8583333333333334,-1.03
265990,3.861111111111111,-1.04
265991,3.863888888888889,-1.05
265992,3.8666666666666667,-1.06
265993,3.8694444444444445,-1.065
265994,3.8722222222222222,-1.06
265995,3.875,-1.055
265996,3.8777777777777778,-1.05
265997,3.8805555555555555,-1.05
265998,3.8833333333333333,-1.055
265999,3.886111111111111,-1.08
266000,3.888888888888889,-1.095
266001,3.8916666666666666,-1.1
266002,3.8944444444444444,-1.105
266003,3.897222222222222,-1.095
266004,3.9,-1.105
266005,3.9027777777777777,-1.075
266006,3.9055555555555554,-1.07
266007,3.908333333333333,-1.055
266008,3.911111111111111,-1.055
266009,3.9138888888888888,-1.05
266010,3.9166666666666665,-1.045
266011,3.9194444444444443,-1.035
266012,3.922222222222222,-1.045
266013,3.925,-1.045
266014,3.9277777777777776,-1.055
266015,3.9305555555555554,-1.045
266016,3.933333333333333,-1.08
266017,3.936111111111111,-1.065
266018,3.938888888888889,-1.05
266019,3.941666666666667,-1.04
266020,3.9444444444444446,-1.025
266021,3.9472222222222224,-1.015
266022,3.95,-1.01
266023,3.952777777777778,-1.02
266024,3.9555555555555557,-1.025
266025,3.9583333333333335,-1.03
266026,3.9611111111111112,-1.045
266027,3.963888888888889,-1.04
266028,3.966666666666667,-1.05
266029,3.9694444444444446,-1.06
266030,3.9722222222222223,-1.07
266031,3.975,-1.065
266032,3.977777777777778,-1.07
266033,3.9805555555555556,-1.06
266034,3.9833333333333334,-1.06
266035,3.986111111111111,-1.065
266036,3.988888888888889,-1.075
266037,3.9916666666666667,-1.08
266038,3.9944444444444445,-1.1
266039,3.9972222222222222,-1.11
266040,4.0,-1.105
266041,4.002777777777778,-1.105
266042,4.0055555555555555,-1.11
266043,4.008333333333334,-1.105
266044,4.011111111111111,-1.085
266045,4.013888888888889,-1.07
266046,4.016666666666667,-1.075
266047,4.019444444444445,-1.085
266048,4.022222222222222,-1.085
266049,4.025,-1.1
266050,4.027777777777778,-1.115
266051,4.030555555555556,-1.135
266052,4.033333333333333,-1.15
266053,4.036111111111111,-1.14
266054,4.038888888888889,-1.14
266055,4.041666666666667,-1.145
266056,4.044444444444444,-1.135
266057,4.0472222222222225,-1.115
266058,4.05,-1.11
266059,4.052777777777778,-1.115
266060,4.055555555555555,-1.13
266061,4.058333333333334,-1.14
266062,4.061111111111111,-1.155
266063,4.063888888888889,-1.155
266064,4.066666666666666,-1.15
266065,4.069444444444445,-1.16
266066,4.072222222222222,-1.15
266067,4.075,-1.14
266068,4.0777777777777775,-1.13
266069,4.080555555555556,-1.135
266070,4.083333333333333,-1.145
266071,4.086111111111111,-1.15
266072,4.088888888888889,-1.145
266073,4.091666666666667,-1.155
266074,4.094444444444444,-1.165
266075,4.097222222222222,-1.16
266076,4.1,-1.18
266077,4.102777777777778,-1.17
266078,4.105555555555555,-1.17
266079,4.108333333333333,-1.17
266080,4.111111111111111,-1.165
266081,4.113888888888889,-1.155
266082,4.116666666666666,-1.15
266083,4.1194444444444445,-1.145
266084,4.122222222222222,-1.16
266085,4.125,-1.155
266086,4.127777777777778,-1.165
266087,4.1305555555555555,-1.175
266088,4.133333333333334,-1.185
266089,4.136111111111111,-1.185
266090,4.138888888888889,-1.165
266091,4.141666666666667,-1.145
266092,4.144444444444445,-1.145
266093,4.147222222222222,-1.115
266094,4.15,-1.1
266095,4.152777777777778,-1.07
266096,4.155555555555556,-1.08
266097,4.158333333333333,-1.09
266098,4.161111111111111,-1.065
266099,4.163888888888889,-1.09
266100,4.166666666666667,-1.09
266101,4.169444444444444,-1.095
266102,4.1722222222222225,-1.08
266103,4.175,-1.065
266104,4.177777777777778,-1.055
266105,4.180555555555555,-1.035
266106,4.183333333333334,-1.01
266107,4.186111111111111,-0.995
266108,4.188888888888889,-0.99
266109,4.191666666666666,-0.985
266110,4.194444444444445,-0.99
266111,4.197222222222222,-0.995
266112,4.2,-1.02
266113,4.2027777777777775,-1.04
266114,4.205555555555556,-1.05
266115,4.208333333333333,-1.045
266116,4.211111111111111,-1.035
266117,4.213888888888889,-1.04
266118,4.216666666666667,-1.04
266119,4.219444444444444,-1.05
266120,4.222222222222222,-1.065
266121,4.225,-1.065
266122,4.227777777777778,-1.085
266123,4.230555555555555,-1.105
266124,4.233333333333333,-1.14
266125,4.236111111111111,-1.19
266126,4.238888888888889,-1.195
266127,4.241666666666666,-1.19
266128,4.2444444444444445,-1.2
266129,4.247222222222222,-1.205
266130,4.25,-1.21
266131,4.252777777777778,-1.21
266132,4.2555555555555555,-1.215
266133,4.258333333333334,-1.225
266134,4.261111111111111,-1.22
266135,4.263888888888889,-1.215
266136,4.266666666666667,-1.215
266137,4.269444444444445,-1.215
266138,4.272222222222222,-1.2
266139,4.275,-1.205
266140,4.277777777777778,-1.185
266141,4.280555555555556,-1.19
266142,4.283333333333333,-1.185
266143,4.286111111111111,-1.2
266144,4.288888888888889,-1.215
266145,4.291666666666667,-1.21
266146,4.294444444444444,-1.195
266147,4.2972222222222225,-1.155
266148,4.3,-1.095
266149,4.302777777777778,-0.985
266150,4.305555555555555,-0.85
266151,4.308333333333334,-0.63
266152,4.311111111111111,-0.32
266153,4.313888888888889,0.085
266154,4.316666666666666,0.53
266155,4.319444444444445,1.01
266156,4.322222222222222,1.495
266157,4.325,1.95
266158,4.3277777777777775,2.265
266159,4.330555555555556,2.445
266160,4.333333333333333,2.435
266161,4.336111111111111,2.195
266162,4.338888888888889,1.675
266163,4.341666666666667,1.035
266164,4.344444444444444,0.395
266165,4.347222222222222,-0.245
266166,4.35,-0.885
266167,4.352777777777778,-1.525
266168,4.355555555555555,-1.575
266169,4.358333333333333,-1.345
266170,4.361111111111111,-1.07
266171,4.363888888888889,-0.91
266172,4.366666666666666,-0.835
266173,4.3694444444444445,-0.87
266174,4.372222222222222,-0.965
266175,4.375,-1.055
266176,4.377777777777778,-1.14
266177,4.3805555555555555,-1.17
266178,4.383333333333334,-1.18
266179,4.386111111111111,-1.19
266180,4.388888888888889,-1.18
266181,4.391666666666667,-1.175
266182,4.394444444444445,-1.185
266183,4.397222222222222,-1.195
266184,4.4,-1.205
266185,4.402777777777778,-1.205
266186,4.405555555555556,-1.185
266187,4.408333333333333,-1.17
266188,4.411111111111111,-1.155
266189,4.413888888888889,-1.135
266190,4.416666666666667,-1.135
266191,4.419444444444444,-1.13
266192,4.4222222222222225,-1.135
266193,4.425,-1.145
266194,4.427777777777778,-1.17
266195,4.430555555555555,-1.16
266196,4.433333333333334,-1.155
266197,4.436111111111111,-1.16
266198,4.438888888888889,-1.145
266199,4.441666666666666,-1.125
266200,4.444444444444445,-1.115
266201,4.447222222222222,-1.09
266202,4.45,-1.105
266203,4.4527777777777775,-1.09
266204,4.455555555555556,-1.095
266205,4.458333333333333,-1.08
266206,4.461111111111111,-1.075
266207,4.463888888888889,-1.06
266208,4.466666666666667,-1.065
266209,4.469444444444444,-1.055
266210,4.472222222222222,-1.04
266211,4.475,-1.02
266212,4.477777777777778,-1.005
266213,4.480555555555555,-0.99
266214,4.483333333333333,-0.97
266215,4.486111111111111,-0.96
266216,4.488888888888889,-0.95
266217,4.491666666666666,-0.955
266218,4.4944444444444445,-0.94
266219,4.497222222222222,-0.925
266220,4.5,-0.91
266221,4.502777777777778,-0.88
266222,4.5055555555555555,-0.87
266223,4.508333333333334,-0.835
266224,4.511111111111111,-0.81
266225,4.513888888888889,-0.765
266226,4.516666666666667,-0.74
266227,4.519444444444445,-0.7
266228,4.522222222222222,-0.685
266229,4.525,-0.675
266230,4.527777777777778,-0.65
266231,4.530555555555556,-0.63
266232,4.533333333333333,-0.605
266233,4.536111111111111,-0.565
266234,4.538888888888889,-0.535
266235,4.541666666666667,-0.495
266236,4.544444444444444,-0.48
266237,4.5472222222222225,-0.43
266238,4.55,-0.41
266239,4.552777777777778,-0.41
266240,4.555555555555555,-0.385
266241,4.558333333333334,-0.375
266242,4.561111111111111,-0.37
266243,4.563888888888889,-0.365
266244,4.566666666666666,-0.36
266245,4.569444444444445,-0.37
266246,4.572222222222222,-0.375
266247,4.575,-0.39
266248,4.5777777777777775,-0.395
266249,4.580555555555556,-0.4
266250,4.583333333333333,-0.425
266251,4.586111111111111,-0.47
266252,4.588888888888889,-0.51
266253,4.591666666666667,-0.56
266254,4.594444444444444,-0.625
266255,4.597222222222222,-0.68
266256,4.6,-0.735
266257,4.602777777777778,-0.79
266258,4.605555555555555,-0.825
266259,4.608333333333333,-0.86
266260,4.611111111111111,-0.89
266261,4.613888888888889,-0.93
266262,4.616666666666666,-0.96
266263,4.6194444444444445,-1.005
266264,4.622222222222222,-1.045
266265,4.625,-1.075
266266,4.627777777777778,-1.1
266267,4.6305555555555555,-1.12
266268,4.633333333333334,-1.135
266269,4.636111111111111,-1.155
266270,4.638888888888889,-1.165
266271,4.641666666666667,-1.16
266272,4.644444444444445,-1.145
266273,4.647222222222222,-1.145
266274,4.65,-1.155
266275,4.652777777777778,-1.165
266276,4.655555555555556,-1.165
266277,4.658333333333333,-1.195
266278,4.661111111111111,-1.205
266279,4.663888888888889,-1.21
266280,4.666666666666667,-1.215
266281,4.669444444444444,-1.21
266282,4.6722222222222225,-1.21
266283,4.675,-1.19
266284,4.677777777777778,-1.19
266285,4.680555555555555,-1.155
266286,4.683333333333334,-1.16
266287,4.686111111111111,-1.16
266288,4.688888888888889,-1.175
266289,4.691666666666666,-1.18
266290,4.694444444444445,-1.19
266291,4.697222222222222,-1.19
266292,4.7,-1.19
266293,4.7027777777777775,-1.185
266294,4.705555555555556,-1.18
266295,4.708333333333333,-1.165
266296,4.711111111111111,-1.15
266297,4.713888888888889,-1.135
266298,4.716666666666667,-1.14
266299,4.719444444444444,-1.125
266300,4.722222222222222,-1.13
266301,4.725,-1.14
266302,4.727777777777778,-1.135
266303,4.730555555555555,-1.145
266304,4.733333333333333,-1.145
266305,4.736111111111111,-1.15
266306,4.738888888888889,-1.145
266307,4.741666666666666,-1.13
266308,4.7444444444444445,-1.135
266309,4.747222222222222,-1.11
266310,4.75,-1.125
266311,4.752777777777778,-1.12
266312,4.7555555555555555,-1.15
266313,4.758333333333334,-1.16
266314,4.761111111111111,-1.155
266315,4.763888888888889,-1.14
266316,4.766666666666667,-1.15
266317,4.769444444444445,-1.155
266318,4.772222222222222,-1.15
266319,4.775,-1.14
266320,4.777777777777778,-1.145
266321,4.780555555555556,-1.14
266322,4.783333333333333,-1.12
266323,4.786111111111111,-1.13
266324,4.788888888888889,-1.145
266325,4.791666666666667,-1.155
266326,4.794444444444444,-1.17
266327,4.7972222222222225,-1.195
266328,4.8,-1.175
266329,4.802777777777778,-1.18
266330,4.805555555555555,-1.175
266331,4.808333333333334,-1.17
266332,4.811111111111111,-1.17
266333,4.813888888888889,-1.155
266334,4.816666666666666,-1.15
266335,4.819444444444445,-1.155
266336,4.822222222222222,-1.16
266337,4.825,-1.175
266338,4.8277777777777775,-1.185
266339,4.830555555555556,-1.19
266340,4.833333333333333,-1.19
266341,4.836111111111111,-1.195
266342,4.838888888888889,-1.195
266343,4.841666666666667,-1.195
266344,4.844444444444444,-1.175
266345,4.847222222222222,-1.155
266346,4.85,-1.155
266347,4.852777777777778,-1.16
266348,4.855555555555555,-1.165
266349,4.858333333333333,-1.18
266350,4.861111111111111,-1.175
266351,4.863888888888889,-1.185
266352,4.866666666666666,-1.195
266353,4.8694444444444445,-1.205
266354,4.872222222222222,-1.19
266355,4.875,-1.2
266356,4.877777777777778,-1.18
266357,4.8805555555555555,-1.17
266358,4.883333333333334,-1.19
266359,4.886111111111111,-1.185
266360,4.888888888888889,-1.195
266361,4.891666666666667,-1.18
266362,4.894444444444445,-1.175
266363,4.897222222222222,-1.19
266364,4.9,-1.185
266365,4.902777777777778,-1.195
266366,4.905555555555556,-1.195
266367,4.908333333333333,-1.165
266368,4.911111111111111,-1.17
266369,4.913888888888889,-1.155
266370,4.916666666666667,-1.155
266371,4.919444444444444,-1.17
266372,4.9222222222222225,-1.17
266373,4.925,-1.155
266374,4.927777777777778,-1.165
266375,4.930555555555555,-1.14
266376,4.933333333333334,-1.125
266377,4.936111111111111,-1.11
266378,4.938888888888889,-1.095
266379,4.941666666666666,-1.065
266380,4.944444444444445,-1.055
266381,4.947222222222222,-1.07
266382,4.95,-1.075
266383,4.9527777777777775,-1.065
266384,4.955555555555556,-1.06
266385,4.958333333333333,-1.07
266386,4.961111111111111,-1.08
266387,4.963888888888889,-1.065
266388,4.966666666666667,-1.05
266389,4.969444444444444,-1.035
266390,4.972222222222222,-1.01
266391,4.975,-1.0
266392,4.977777777777778,-0.98
266393,4.980555555555555,-0.965
266394,4.983333333333333,-0.965
266395,4.986111111111111,-0.99
266396,4.988888888888889,-1.0
266397,4.991666666666666,-1.015
266398,4.9944444444444445,-1.04
266399,4.997222222222222,-1.05
266400,5.0,-1.07
266401,5.002777777777778,-1.07
266402,5.0055555555555555,-1.08
266403,5.008333333333334,-1.075
266404,5.011111111111111,-1.06
266405,5.013888888888889,-1.055
266406,5.016666666666667,-1.09
266407,5.019444444444445,-1.105
266408,5.022222222222222,-1.13
266409,5.025,-1.16
266410,5.027777777777778,-1.18
266411,5.030555555555556,-1.2
266412,5.033333333333333,-1.22
266413,5.036111111111111,-1.225
266414,5.038888888888889,-1.21
266415,5.041666666666667,-1.2
266416,5.044444444444444,-1.18
266417,5.0472222222222225,-1.165
266418,5.05,-1.165
266419,5.052777777777778,-1.18
266420,5.055555555555555,-1.18
266421,5.058333333333334,-1.185
266422,5.061111111111111,-1.21
266423,5.063888888888889,-1.205
266424,5.066666666666666,-1.215
266425,5.069444444444445,-1.205
266426,5.072222222222222,-1.18
266427,5.075,-1.165
266428,5.0777777777777775,-1.16
266429,5.080555555555556,-1.15
266430,5.083333333333333,-1.13
266431,5.086111111111111,-1.11
266432,5.088888888888889,-1.065
266433,5.091666666666667,-1.005
266434,5.094444444444444,-0.895
266435,5.097222222222222,-0.735
266436,5.1,-0.565
266437,5.102777777777778,-0.305
266438,5.105555555555555,-0.025
266439,5.108333333333333,0.31
266440,5.111111111111111,0.68
266441,5.113888888888889,1.065
266442,5.116666666666666,1.47
266443,5.1194444444444445,1.875
266444,5.122222222222222,2.195
266445,5.125,2.4
266446,5.127777777777778,2.44
266447,5.1305555555555555,2.3
266448,5.133333333333334,1.89
266449,5.136111111111111,1.25
266450,5.138888888888889,0.61
266451,5.141666666666667,-0.03
266452,5.144444444444445,-0.67
266453,5.147222222222222,-1.31
266454,5.15,-1.6
266455,5.152777777777778,-1.42
266456,5.155555555555556,-1.18
266457,5.158333333333333,-0.955
266458,5.161111111111111,-0.84
266459,5.163888888888889,-0.81
266460,5.166666666666667,-0.89
266461,5.169444444444444,-0.975
266462,5.1722222222222225,-1.045
266463,5.175,-1.095
266464,5.177777777777778,-1.13
266465,5.180555555555555,-1.125
266466,5.183333333333334,-1.115
266467,5.186111111111111,-1.085
266468,5.188888888888889,-1.085
266469,5.191666666666666,-1.1
266470,5.194444444444445,-1.11
266471,5.197222222222222,-1.125
266472,5.2,-1.12
266473,5.2027777777777775,-1.145
266474,5.205555555555556,-1.125
266475,5.208333333333333,-1.105
266476,5.211111111111111,-1.09
266477,5.213888888888889,-1.06
266478,5.216666666666667,-1.06
266479,5.219444444444444,-1.065
266480,5.222222222222222,-1.065
266481,5.225,-1.075
266482,5.227777777777778,-1.08
266483,5.230555555555555,-1.055
266484,5.233333333333333,-1.065
266485,5.236111111111111,-1.04
266486,5.238888888888889,-1.045
266487,5.241666666666666,-1.015
266488,5.2444444444444445,-1.02
266489,5.247222222222222,-1.01
266490,5.25,-0.99
266491,5.252777777777778,-0.995
266492,5.2555555555555555,-0.985
266493,5.258333333333334,-0.98
266494,5.261111111111111,-0.98
266495,5.263888888888889,-0.975
266496,5.266666666666667,-0.965
266497,5.269444444444445,-0.96
266498,5.272222222222222,-0.95
266499,5.275,-0.92
266500,5.277777777777778,-0.895
266501,5.280555555555556,-0.88
266502,5.283333333333333,-0.855
266503,5.286111111111111,-0.86
266504,5.288888888888889,-0.84
266505,5.291666666666667,-0.835
266506,5.294444444444444,-0.845
266507,5.2972222222222225,-0.81
266508,5.3,-0.8
266509,5.302777777777778,-0.78
266510,5.305555555555555,-0.765
266511,5.308333333333334,-0.71
266512,5.311111111111111,-0.69
266513,5.313888888888889,-0.64
266514,5.316666666666666,-0.61
266515,5.319444444444445,-0.58
266516,5.322222222222222,-0.55
266517,5.325,-0.52
266518,5.3277777777777775,-0.505
266519,5.330555555555556,-0.475
266520,5.333333333333333,-0.47
266521,5.336111111111111,-0.45
266522,5.338888888888889,-0.41
266523,5.341666666666667,-0.39
266524,5.344444444444444,-0.36
266525,5.347222222222222,-0.315
266526,5.35,-0.295
266527,5.352777777777778,-0.29
266528,5.355555555555555,-0.275
266529,5.358333333333333,-0.265
266530,5.361111111111111,-0.275
266531,5.363888888888889,-0.275
266532,5.366666666666666,-0.285
266533,5.3694444444444445,-0.29
266534,5.372222222222222,-0.3
266535,5.375,-0.29
266536,5.377777777777778,-0.3
266537,5.3805555555555555,-0.31
266538,5.383333333333334,-0.32
266539,5.386111111111111,-0.365
266540,5.388888888888889,-0.41
266541,5.391666666666667,-0.47
266542,5.394444444444445,-0.5
266543,5.397222222222222,-0.545
266544,5.4,-0.61
266545,5.402777777777778,-0.65
266546,5.405555555555556,-0.69
266547,5.408333333333333,-0.715
266548,5.411111111111111,-0.755
266549,5.413888888888889,-0.775
266550,5.416666666666667,-0.815
266551,5.419444444444444,-0.855
266552,5.4222222222222225,-0.895
266553,5.425,-0.925
266554,5.427777777777778,-0.945
266555,5.430555555555555,-0.97
266556,5.433333333333334,-0.99
266557,5.436111111111111,-1.02
266558,5.438888888888889,-1.03
266559,5.441666666666666,-1.015
266560,5.444444444444445,-1.03
266561,5.447222222222222,-1.015
266562,5.45,-1.02
266563,5.4527777777777775,-1.01
266564,5.455555555555556,-1.03
266565,5.458333333333333,-1.045
266566,5.461111111111111,-1.055
266567,5.463888888888889,-1.065
266568,5.466666666666667,-1.075
266569,5.469444444444444,-1.07
266570,5.472222222222222,-1.08
266571,5.475,-1.075
266572,5.477777777777778,-1.07
266573,5.480555555555555,-1.05
266574,5.483333333333333,-1.035
266575,5.486111111111111,-1.045
266576,5.488888888888889,-1.035
266577,5.491666666666666,-1.04
266578,5.4944444444444445,-1.04
266579,5.497222222222222,-1.045
266580,5.5,-1.055
266581,5.502777777777778,-1.055
266582,5.5055555555555555,-1.035
266583,5.508333333333334,-1.025
266584,5.511111111111111,-1.01
266585,5.513888888888889,-1.0
266586,5.516666666666667,-1.005
266587,5.519444444444445,-1.0
266588,5.522222222222222,-0.995
266589,5.525,-1.0
266590,5.527777777777778,-1.005
266591,5.530555555555556,-1.005
266592,5.533333333333333,-1.005
266593,5.536111111111111,-1.005
266594,5.538888888888889,-0.995
266595,5.541666666666667,-0.99
266596,5.544444444444444,-0.965
266597,5.5472222222222225,-0.97
266598,5.55,-0.98
266599,5.552777777777778,-0.995
266600,5.555555555555555,-1.005
266601,5.558333333333334,-1.005
266602,5.561111111111111,-1.0
266603,5.563888888888889,-1.01
266604,5.566666666666666,-1.01
266605,5.569444444444445,-1.0
266606,5.572222222222222,-1.005
266607,5.575,-1.005
266608,5.5777777777777775,-0.99
266609,5.580555555555556,-0.995
266610,5.583333333333333,-0.99
266611,5.586111111111111,-0.99
266612,5.588888888888889,-0.99
266613,5.591666666666667,-1.015
266614,5.594444444444444,-1.02
266615,5.597222222222222,-1.03
266616,5.6,-1.045
266617,5.602777777777778,-1.035
266618,5.605555555555555,-1.03
266619,5.608333333333333,-1.025
266620,5.611111111111111,-1.01
266621,5.613888888888889,-1.01
266622,5.616666666666666,-0.995
266623,5.6194444444444445,-0.985
266624,5.622222222222222,-1.0
266625,5.625,-1.01
266626,5.627777777777778,-1.01
266627,5.6305555555555555,-1.03
266628,5.633333333333334,-1.04
266629,5.636111111111111,-1.06
266630,5.638888888888889,-1.06
266631,5.641666666666667,-1.06
266632,5.644444444444445,-1.05
266633,5.647222222222222,-1.045
266634,5.65,-1.03
266635,5.652777777777778,-1.045
266636,5.655555555555556,-1.065
266637,5.658333333333333,-1.08
266638,5.661111111111111,-1.09
266639,5.663888888888889,-1.09
266640,5.666666666666667,-1.105
266641,5.669444444444444,-1.105
266642,5.6722222222222225,-1.095
266643,5.675,-1.085
266644,5.677777777777778,-1.09
266645,5.680555555555555,-1.055
266646,5.683333333333334,-1.045
266647,5.686111111111111,-1.06
266648,5.688888888888889,-1.055
266649,5.691666666666666,-1.09
266650,5.694444444444445,-1.085
266651,5.697222222222222,-1.1
266652,5.7,-1.095
266653,5.7027777777777775,-1.095
266654,5.705555555555556,-1.085
266655,5.708333333333333,-1.08
266656,5.711111111111111,-1.08
266657,5.713888888888889,-1.065
266658,5.716666666666667,-1.065
266659,5.719444444444444,-1.06
266660,5.722222222222222,-1.065
266661,5.725,-1.065
266662,5.727777777777778,-1.07
266663,5.730555555555555,-1.07
266664,5.733333333333333,-1.09
266665,5.736111111111111,-1.085
266666,5.738888888888889,-1.075
266667,5.741666666666666,-1.055
266668,5.7444444444444445,-1.035
266669,5.747222222222222,-1.005
266670,5.75,-0.995
266671,5.752777777777778,-0.99
266672,5.7555555555555555,-0.97
266673,5.758333333333334,-0.975
266674,5.761111111111111,-0.955
266675,5.763888888888889,-0.96
266676,5.766666666666667,-0.96
266677,5.769444444444445,-0.955
266678,5.772222222222222,-0.96
266679,5.775,-0.95
266680,5.777777777777778,-0.935
266681,5.780555555555556,-0.915
266682,5.783333333333333,-0.885
266683,5.786111111111111,-0.88
266684,5.788888888888889,-0.865
266685,5.791666666666667,-0.855
266686,5.794444444444444,-0.855
266687,5.7972222222222225,-0.865
266688,5.8,-0.885
266689,5.802777777777778,-0.89
266690,5.805555555555555,-0.89
266691,5.808333333333334,-0.885
266692,5.811111111111111,-0.89
266693,5.813888888888889,-0.88
266694,5.816666666666666,-0.89
266695,5.819444444444445,-0.895
266696,5.822222222222222,-0.905
266697,5.825,-0.92
266698,5.8277777777777775,-0.92
266699,5.830555555555556,-0.95
266700,5.833333333333333,-0.97
266701,5.836111111111111,-1.0
266702,5.838888888888889,-1.035
266703,5.841666666666667,-1.055
266704,5.844444444444444,-1.075
266705,5.847222222222222,-1.08
266706,5.85,-1.085
266707,5.852777777777778,-1.095
266708,5.855555555555555,-1.1
266709,5.858333333333333,-1.1
266710,5.861111111111111,-1.09
266711,5.863888888888889,-1.09
266712,5.866666666666666,-1.085
266713,5.8694444444444445,-1.095
266714,5.872222222222222,-1.085
266715,5.875,-1.07
266716,5.877777777777778,-1.065
266717,5.8805555555555555,-1.06
266718,5.883333333333334,-1.055
266719,5.886111111111111,-1.06
266720,5.888888888888889,-1.07
266721,5.891666666666667,-1.08
266722,5.894444444444445,-1.08
266723,5.897222222222222,-1.085
266724,5.9,-1.07
266725,5.902777777777778,-1.03
266726,5.905555555555556,-0.96
266727,5.908333333333333,-0.84
266728,5.911111111111111,-0.64
266729,5.913888888888889,-0.38
266730,5.916666666666667,-0.055
266731,5.919444444444444,0.31
266732,5.9222222222222225,0.69
266733,5.925,1.08
266734,5.927777777777778,1.515
266735,5.930555555555555,1.93
266736,5.933333333333334,2.25
266737,5.936111111111111,2.48
266738,5.938888888888889,2.59
266739,5.941666666666666,2.525
266740,5.944444444444445,2.22
266741,5.947222222222222,1.62
266742,5.95,0.98
266743,5.9527777777777775,0.34
266744,5.955555555555556,-0.3
266745,5.958333333333333,-0.94
266746,5.961111111111111,-1.5
266747,5.963888888888889,-1.295
266748,5.966666666666667,-1.015
266749,5.969444444444444,-0.79
266750,5.972222222222222,-0.685
266751,5.975,-0.705
266752,5.977777777777778,-0.785
266753,5.980555555555555,-0.895
266754,5.983333333333333,-0.99
266755,5.986111111111111,-1.035
266756,5.988888888888889,-1.075
266757,5.991666666666666,-1.08
266758,5.9944444444444445,-1.08
266759,5.997222222222222,-1.075
266760,6.0,-1.075
266761,6.002777777777778,-1.06
266762,6.0055555555555555,-1.055
266763,6.008333333333334,-1.04
266764,6.011111111111111,-1.045
266765,6.013888888888889,-1.025
266766,6.016666666666667,-1.02
266767,6.019444444444445,-1.035
266768,6.022222222222222,-1.035
266769,6.025,-1.045
266770,6.027777777777778,-1.04
266771,6.030555555555556,-1.04
266772,6.033333333333333,-1.05
266773,6.036111111111111,-1.045
266774,6.038888888888889,-1.04
266775,6.041666666666667,-1.015
266776,6.044444444444444,-1.01
266777,6.0472222222222225,-0.975
266778,6.05,-0.975
266779,6.052777777777778,-0.96
266780,6.055555555555555,-0.955
266781,6.058333333333334,-0.97
266782,6.061111111111111,-0.97
266783,6.063888888888889,-0.97
266784,6.066666666666666,-0.975
266785,6.069444444444445,-0.985
266786,6.072222222222222,-0.975
266787,6.075,-0.94
266788,6.0777777777777775,-0.915
266789,6.080555555555556,-0.88
266790,6.083333333333333,-0.845
266791,6.086111111111111,-0.825
266792,6.088888888888889,-0.8
266793,6.091666666666667,-0.78
266794,6.094444444444444,-0.765
266795,6.097222222222222,-0.755
266796,6.1,-0.745
266797,6.102777777777778,-0.72
266798,6.105555555555555,-0.7
266799,6.108333333333333,-0.645
266800,6.111111111111111,-0.63
266801,6.113888888888889,-0.605
266802,6.116666666666666,-0.585
266803,6.1194444444444445,-0.56
266804,6.122222222222222,-0.545
266805,6.125,-0.53
266806,6.127777777777778,-0.525
266807,6.1305555555555555,-0.51
266808,6.133333333333334,-0.465
266809,6.136111111111111,-0.44
266810,6.138888888888889,-0.4
266811,6.141666666666667,-0.36
266812,6.144444444444445,-0.325
266813,6.147222222222222,-0.285
266814,6.15,-0.26
266815,6.152777777777778,-0.22
266816,6.155555555555556,-0.225
266817,6.158333333333333,-0.22
266818,6.161111111111111,-0.21
266819,6.163888888888889,-0.2
266820,6.166666666666667,-0.215
266821,6.169444444444444,-0.215
266822,6.1722222222222225,-0.195
266823,6.175,-0.2
266824,6.177777777777778,-0.2
266825,6.180555555555555,-0.175
266826,6.183333333333334,-0.175
266827,6.186111111111111,-0.18
266828,6.188888888888889,-0.2
266829,6.191666666666666,-0.22
266830,6.194444444444445,-0.285
266831,6.197222222222222,-0.32
266832,6.2,-0.39
266833,6.2027777777777775,-0.43
266834,6.205555555555556,-0.485
266835,6.208333333333333,-0.54
266836,6.211111111111111,-0.595
266837,6.213888888888889,-0.625
266838,6.216666666666667,-0.67
266839,6.219444444444444,-0.72
266840,6.222222222222222,-0.755
266841,6.225,-0.79
266842,6.227777777777778,-0.835
266843,6.230555555555555,-0.865
266844,6.233333333333333,-0.87
266845,6.236111111111111,-0.89
266846,6.238888888888889,-0.91
266847,6.241666666666666,-0.91
266848,6.2444444444444445,-0.92
266849,6.247222222222222,-0.935
266850,6.25,-0.945
266851,6.252777777777778,-0.97
266852,6.2555555555555555,-0.97
266853,6.258333333333334,-0.98
266854,6.261111111111111,-0.985
266855,6.263888888888889,-1.01
266856,6.266666666666667,-1.015
266857,6.269444444444445,-1.025
266858,6.272222222222222,-1.025
266859,6.275,-1.0
266860,6.277777777777778,-1.0
266861,6.280555555555556,-0.99
266862,6.283333333333333,-0.99
266863,6.286111111111111,-1.0
266864,6.288888888888889,-1.01
266865,6.291666666666667,-1.01
266866,6.294444444444444,-1.025
266867,6.2972222222222225,-1.03
266868,6.3,-1.03
266869,6.302777777777778,-1.03
266870,6.305555555555555,-1.04
266871,6.308333333333334,-1.03
266872,6.311111111111111,-1.01
266873,6.313888888888889,-0.985
266874,6.316666666666666,-0.965
266875,6.319444444444445,-0.97
266876,6.322222222222222,-0.96
266877,6.325,-0.965
266878,6.3277777777777775,-0.965
266879,6.330555555555556,-0.97
266880,6.333333333333333,-0.98
266881,6.336111111111111,-0.98
266882,6.338888888888889,-0.97
266883,6.341666666666667,-0.965
266884,6.344444444444444,-0.95
266885,6.347222222222222,-0.945
266886,6.35,-0.93
266887,6.352777777777778,-0.94
266888,6.355555555555555,-0.945
266889,6.358333333333333,-0.95
266890,6.361111111111111,-0.96
266891,6.363888888888889,-0.96
266892,6.366666666666666,-0.965
266893,6.3694444444444445,-0.955
266894,6.372222222222222,-0.965
266895,6.375,-0.965
266896,6.377777777777778,-0.98
266897,6.3805555555555555,-0.955
266898,6.383333333333334,-0.965
266899,6.386111111111111,-0.96
266900,6.388888888888889,-0.965
266901,6.391666666666667,-0.97
266902,6.394444444444445,-0.975
266903,6.397222222222222,-0.995
266904,6.4,-0.98
266905,6.402777777777778,-1.0
266906,6.405555555555556,-1.005
266907,6.408333333333333,-0.985
266908,6.411111111111111,-0.99
266909,6.413888888888889,-0.98
266910,6.416666666666667,-0.985
266911,6.419444444444444,-0.99
266912,6.4222222222222225,-0.995
266913,6.425,-1.01
266914,6.427777777777778,-1.01
266915,6.430555555555555,-1.01
266916,6.433333333333334,-1.04
266917,6.436111111111111,-1.03
266918,6.438888888888889,-1.035
266919,6.441666666666666,-1.03
266920,6.444444444444445,-1.03
266921,6.447222222222222,-1.025
266922,6.45,-1.02
266923,6.4527777777777775,-1.02
266924,6.455555555555556,-1.025
266925,6.458333333333333,-1.04
266926,6.461111111111111,-1.035
266927,6.463888888888889,-1.06
266928,6.466666666666667,-1.055
266929,6.469444444444444,-1.065
266930,6.472222222222222,-1.06
266931,6.475,-1.05
266932,6.477777777777778,-1.04
266933,6.480555555555555,-1.055
266934,6.483333333333333,-1.015
266935,6.486111111111111,-1.04
266936,6.488888888888889,-1.04
266937,6.491666666666666,-1.055
266938,6.4944444444444445,-1.07
266939,6.497222222222222,-1.075
266940,6.5,-1.08
266941,6.502777777777778,-1.09
266942,6.5055555555555555,-1.085
266943,6.508333333333334,-1.075
266944,6.511111111111111,-1.09
266945,6.513888888888889,-1.065
266946,6.516666666666667,-1.065
266947,6.519444444444445,-1.055
266948,6.522222222222222,-1.06
266949,6.525,-1.075
266950,6.527777777777778,-1.085
266951,6.530555555555556,-1.09
266952,6.533333333333333,-1.11
266953,6.536111111111111,-1.105
266954,6.538888888888889,-1.105
266955,6.541666666666667,-1.09
266956,6.544444444444444,-1.075
266957,6.5472222222222225,-1.06
266958,6.55,-1.05
266959,6.552777777777778,-1.05
266960,6.555555555555555,-1.045
266961,6.558333333333334,-1.03
266962,6.561111111111111,-1.005
266963,6.563888888888889,-1.02
266964,6.566666666666666,-1.0
266965,6.569444444444445,-0.995
266966,6.572222222222222,-1.0
266967,6.575,-0.99
266968,6.5777777777777775,-0.99
266969,6.580555555555556,-1.005
266970,6.583333333333333,-0.98
266971,6.586111111111111,-0.975
266972,6.588888888888889,-0.96
266973,6.591666666666667,-0.965
266974,6.594444444444444,-0.945
266975,6.597222222222222,-0.95
266976,6.6,-0.925
266977,6.602777777777778,-0.925
266978,6.605555555555555,-0.915
266979,6.608333333333333,-0.915
266980,6.611111111111111,-0.91
266981,6.613888888888889,-0.91
266982,6.616666666666666,-0.925
266983,6.6194444444444445,-0.94
266984,6.622222222222222,-0.96
266985,6.625,-0.985
266986,6.627777777777778,-1.01
266987,6.6305555555555555,-1.02
266988,6.633333333333334,-1.025
266989,6.636111111111111,-1.03
266990,6.638888888888889,-1.05
266991,6.641666666666667,-1.065
266992,6.644444444444445,-1.095
266993,6.647222222222222,-1.095
266994,6.65,-1.115
266995,6.652777777777778,-1.13
266996,6.655555555555556,-1.16
266997,6.658333333333333,-1.175
266998,6.661111111111111,-1.185
266999,6.663888888888889,-1.185
267000,6.666666666666667,-1.18
267001,6.669444444444444,-1.195
267002,6.6722222222222225,-1.19
267003,6.675,-1.17
267004,6.677777777777778,-1.16
267005,6.680555555555555,-1.16
267006,6.683333333333334,-1.145
267007,6.686111111111111,-1.16
267008,6.688888888888889,-1.185
267009,6.691666666666666,-1.14
267010,6.694444444444445,-1.15
267011,6.697222222222222,-1.16
267012,6.7,-1.175
267013,6.7027777777777775,-1.16
267014,6.705555555555556,-1.165
267015,6.708333333333333,-1.11
267016,6.711111111111111,-1.06
267017,6.713888888888889,-0.95
267018,6.716666666666667,-0.8
267019,6.719444444444444,-0.585
267020,6.722222222222222,-0.32
267021,6.725,-0.02
267022,6.727777777777778,0.31
267023,6.730555555555555,0.685
267024,6.733333333333333,1.11
267025,6.736111111111111,1.57
267026,6.738888888888889,2.015
267027,6.741666666666666,2.335
267028,6.7444444444444445,2.51
267029,6.747222222222222,2.505
267030,6.75,2.285
267031,6.752777777777778,1.755
267032,6.7555555555555555,1.115
267033,6.758333333333334,0.475
267034,6.761111111111111,-0.165
267035,6.763888888888889,-0.805
267036,6.766666666666667,-1.445
267037,6.769444444444445,-1.465
267038,6.772222222222222,-1.215
267039,6.775,-0.965
267040,6.777777777777778,-0.815
267041,6.780555555555556,-0.78
267042,6.783333333333333,-0.835
267043,6.786111111111111,-0.94
267044,6.788888888888889,-1.04
267045,6.791666666666667,-1.135
267046,6.794444444444444,-1.17
267047,6.7972222222222225,-1.185
267048,6.8,-1.175
267049,6.802777777777778,-1.17
267050,6.805555555555555,-1.175
267051,6.808333333333334,-1.15
267052,6.811111111111111,-1.16
267053,6.813888888888889,-1.145
267054,6.816666666666666,-1.14
267055,6.819444444444445,-1.145
267056,6.822222222222222,-1.135
267057,6.825,-1.14
267058,6.8277777777777775,-1.16
267059,6.830555555555556,-1.155
267060,6.833333333333333,-1.14
267061,6.836111111111111,-1.145
267062,6.838888888888889,-1.14
267063,6.841666666666667,-1.12
267064,6.844444444444444,-1.115
267065,6.847222222222222,-1.125
267066,6.85,-1.105
267067,6.852777777777778,-1.115
267068,6.855555555555555,-1.115
267069,6.858333333333333,-1.115
267070,6.861111111111111,-1.12
267071,6.863888888888889,-1.125
267072,6.866666666666666,-1.11
267073,6.8694444444444445,-1.1
267074,6.872222222222222,-1.075
267075,6.875,-1.05
267076,6.877777777777778,-1.04
267077,6.8805555555555555,-1.03
267078,6.883333333333334,-1.02
267079,6.886111111111111,-1.01
267080,6.888888888888889,-1.01
267081,6.891666666666667,-1.0
267082,6.894444444444445,-1.01
267083,6.897222222222222,-1.01
267084,6.9,-1.005
267085,6.902777777777778,-0.99
267086,6.905555555555556,-0.985
267087,6.908333333333333,-0.96
267088,6.911111111111111,-0.925
267089,6.913888888888889,-0.895
267090,6.916666666666667,-0.87
267091,6.919444444444444,-0.85
267092,6.9222222222222225,-0.825
267093,6.925,-0.81
267094,6.927777777777778,-0.805
267095,6.930555555555555,-0.805
267096,6.933333333333334,-0.78
267097,6.936111111111111,-0.75
267098,6.938888888888889,-0.705
267099,6.941666666666666,-0.67
267100,6.944444444444445,-0.62
267101,6.947222222222222,-0.57
267102,6.95,-0.545
267103,6.9527777777777775,-0.525
267104,6.955555555555556,-0.51
267105,6.958333333333333,-0.495
267106,6.961111111111111,-0.46
267107,6.963888888888889,-0.455
267108,6.966666666666667,-0.45
267109,6.969444444444444,-0.445
267110,6.972222222222222,-0.41
267111,6.975,-0.395
267112,6.977777777777778,-0.385
267113,6.980555555555555,-0.385
267114,6.983333333333333,-0.365
267115,6.986111111111111,-0.35
267116,6.988888888888889,-0.36
267117,6.991666666666666,-0.39
267118,6.9944444444444445,-0.415
267119,6.997222222222222,-0.44
267120,7.0,-0.465
267121,7.002777777777778,-0.48
267122,7.0055555555555555,-0.515
267123,7.008333333333334,-0.56
267124,7.011111111111111,-0.605
267125,7.013888888888889,-0.645
267126,7.016666666666667,-0.67
267127,7.019444444444445,-0.725
267128,7.022222222222222,-0.765
267129,7.025,-0.81
267130,7.027777777777778,-0.86
267131,7.030555555555556,-0.91
267132,7.033333333333333,-0.95
267133,7.036111111111111,-1.01
267134,7.038888888888889,-1.03
267135,7.041666666666667,-1.045
267136,7.044444444444444,-1.065
267137,7.0472222222222225,-1.085
267138,7.05,-1.08
267139,7.052777777777778,-1.1
267140,7.055555555555555,-1.12
267141,7.058333333333334,-1.145
267142,7.061111111111111,-1.15
267143,7.063888888888889,-1.18
267144,7.066666666666666,-1.185
267145,7.069444444444445,-1.2
267146,7.072222222222222,-1.2
267147,7.075,-1.2
267148,7.0777777777777775,-1.215
267149,7.080555555555556,-1.21
267150,7.083333333333333,-1.18
267151,7.086111111111111,-1.185
267152,7.088888888888889,-1.195
267153,7.091666666666667,-1.19
267154,7.094444444444444,-1.2
267155,7.097222222222222,-1.21
267156,7.1,-1.225
267157,7.102777777777778,-1.22
267158,7.105555555555555,-1.225
267159,7.108333333333333,-1.215
267160,7.111111111111111,-1.205
267161,7.113888888888889,-1.175
267162,7.116666666666666,-1.18
267163,7.1194444444444445,-1.175
267164,7.122222222222222,-1.17
267165,7.125,-1.18
267166,7.127777777777778,-1.2
267167,7.1305555555555555,-1.2
267168,7.133333333333334,-1.205
267169,7.136111111111111,-1.215
267170,7.138888888888889,-1.215
267171,7.141666666666667,-1.21
267172,7.144444444444445,-1.185
267173,7.147222222222222,-1.175
267174,7.15,-1.165
267175,7.152777777777778,-1.16
267176,7.155555555555556,-1.165
267177,7.158333333333333,-1.165
267178,7.161111111111111,-1.185
267179,7.163888888888889,-1.19
267180,7.166666666666667,-1.185
267181,7.169444444444444,-1.2
267182,7.1722222222222225,-1.205
267183,7.175,-1.185
267184,7.177777777777778,-1.19
267185,7.180555555555555,-1.18
267186,7.183333333333334,-1.165
267187,7.186111111111111,-1.16
267188,7.188888888888889,-1.17
267189,7.191666666666666,-1.185
267190,7.194444444444445,-1.21
267191,7.197222222222222,-1.225
267192,7.2,-1.23
267193,7.2027777777777775,-1.24
267194,7.205555555555556,-1.24
267195,7.208333333333333,-1.24
267196,7.211111111111111,-1.22
267197,7.213888888888889,-1.22
267198,7.216666666666667,-1.205
267199,7.219444444444444,-1.215
267200,7.222222222222222,-1.215
267201,7.225,-1.22
267202,7.227777777777778,-1.235
267203,7.230555555555555,-1.245
267204,7.233333333333333,-1.24
267205,7.236111111111111,-1.245
267206,7.238888888888889,-1.25
267207,7.241666666666666,-1.235
267208,7.2444444444444445,-1.23
267209,7.247222222222222,-1.215
267210,7.25,-1.21
267211,7.252777777777778,-1.225
267212,7.2555555555555555,-1.23
267213,7.258333333333334,-1.255
267214,7.261111111111111,-1.255
267215,7.263888888888889,-1.285
267216,7.266666666666667,-1.295
267217,7.269444444444445,-1.29
267218,7.272222222222222,-1.29
267219,7.275,-1.295
267220,7.277777777777778,-1.28
267221,7.280555555555556,-1.265
267222,7.283333333333333,-1.25
267223,7.286111111111111,-1.26
267224,7.288888888888889,-1.245
267225,7.291666666666667,-1.25
267226,7.294444444444444,-1.26
267227,7.2972222222222225,-1.27
267228,7.3,-1.28
267229,7.302777777777778,-1.275
267230,7.305555555555555,-1.285
267231,7.308333333333334,-1.275
267232,7.311111111111111,-1.265
267233,7.313888888888889,-1.265
267234,7.316666666666666,-1.275
267235,7.319444444444445,-1.275
267236,7.322222222222222,-1.29
267237,7.325,-1.29
267238,7.3277777777777775,-1.3
267239,7.330555555555556,-1.29
267240,7.333333333333333,-1.31
267241,7.336111111111111,-1.295
267242,7.338888888888889,-1.295
267243,7.341666666666667,-1.265
267244,7.344444444444444,-1.275
267245,7.347222222222222,-1.275
267246,7.35,-1.265
267247,7.352777777777778,-1.275
267248,7.355555555555555,-1.27
267249,7.358333333333333,-1.26
267250,7.361111111111111,-1.265
267251,7.363888888888889,-1.275
267252,7.366666666666666,-1.27
267253,7.3694444444444445,-1.25
267254,7.372222222222222,-1.24
267255,7.375,-1.215
267256,7.377777777777778,-1.185
267257,7.3805555555555555,-1.17
267258,7.383333333333334,-1.15
267259,7.386111111111111,-1.14
267260,7.388888888888889,-1.135
267261,7.391666666666667,-1.155
267262,7.394444444444445,-1.16
267263,7.397222222222222,-1.17
267264,7.4,-1.175
267265,7.402777777777778,-1.16
267266,7.405555555555556,-1.15
267267,7.408333333333333,-1.115
267268,7.411111111111111,-1.105
267269,7.413888888888889,-1.095
267270,7.416666666666667,-1.07
267271,7.419444444444444,-1.075
267272,7.4222222222222225,-1.075
267273,7.425,-1.095
267274,7.427777777777778,-1.115
267275,7.430555555555555,-1.135
267276,7.433333333333334,-1.15
267277,7.436111111111111,-1.14
267278,7.438888888888889,-1.16
267279,7.441666666666666,-1.17
267280,7.444444444444445,-1.17
267281,7.447222222222222,-1.145
267282,7.45,-1.135
267283,7.4527777777777775,-1.145
267284,7.455555555555556,-1.175
267285,7.458333333333333,-1.195
267286,7.461111111111111,-1.24
267287,7.463888888888889,-1.285
267288,7.466666666666667,-1.3
267289,7.469444444444444,-1.315
267290,7.472222222222222,-1.32
267291,7.475,-1.31
267292,7.477777777777778,-1.29
267293,7.480555555555555,-1.275
267294,7.483333333333333,-1.26
267295,7.486111111111111,-1.265
267296,7.488888888888889,-1.26
267297,7.491666666666666,-1.265
267298,7.4944444444444445,-1.29
267299,7.497222222222222,-1.305
267300,7.5,-1.3
267301,7.502777777777778,-1.31
267302,7.5055555555555555,-1.31
267303,7.508333333333334,-1.285
267304,7.511111111111111,-1.29
267305,7.513888888888889,-1.275
267306,7.516666666666667,-1.28
267307,7.519444444444445,-1.25
267308,7.522222222222222,-1.23
267309,7.525,-1.215
267310,7.527777777777778,-1.155
267311,7.530555555555556,-1.06
267312,7.533333333333333,-0.93
267313,7.536111111111111,-0.71
267314,7.538888888888889,-0.415
267315,7.541666666666667,-0.04
267316,7.544444444444444,0.39
267317,7.5472222222222225,0.87
267318,7.55,1.365
267319,7.552777777777778,1.82
267320,7.555555555555555,2.19
267321,7.558333333333334,2.395
267322,7.561111111111111,2.445
267323,7.563888888888889,2.275
267324,7.566666666666666,1.865
267325,7.569444444444445,1.225
267326,7.572222222222222,0.585
267327,7.575,-0.055
267328,7.5777777777777775,-0.695
267329,7.580555555555556,-1.335
267330,7.583333333333333,-1.79
267331,7.586111111111111,-1.63
267332,7.588888888888889,-1.355
267333,7.591666666666667,-1.125
267334,7.594444444444444,-0.99
267335,7.597222222222222,-0.97
267336,7.6,-1.025
267337,7.602777777777778,-1.11
267338,7.605555555555555,-1.175
267339,7.608333333333333,-1.23
267340,7.611111111111111,-1.25
267341,7.613888888888889,-1.24
267342,7.616666666666666,-1.205
267343,7.6194444444444445,-1.195
267344,7.622222222222222,-1.2
267345,7.625,-1.205
267346,7.627777777777778,-1.225
267347,7.6305555555555555,-1.235
267348,7.633333333333334,-1.23
267349,7.636111111111111,-1.235
267350,7.638888888888889,-1.23
267351,7.641666666666667,-1.21
267352,7.644444444444445,-1.2
267353,7.647222222222222,-1.18
267354,7.65,-1.165
267355,7.652777777777778,-1.16
267356,7.655555555555556,-1.14
267357,7.658333333333333,-1.15
267358,7.661111111111111,-1.145
267359,7.663888888888889,-1.16
267360,7.666666666666667,-1.18
267361,7.669444444444444,-1.175
267362,7.6722222222222225,-1.145
267363,7.675,-1.135
267364,7.677777777777778,-1.125
267365,7.680555555555555,-1.12
267366,7.683333333333334,-1.095
267367,7.686111111111111,-1.09
267368,7.688888888888889,-1.085
267369,7.691666666666666,-1.09
267370,7.694444444444445,-1.09
267371,7.697222222222222,-1.09
267372,7.7,-1.075
267373,7.7027777777777775,-1.06
267374,7.705555555555556,-1.06
267375,7.708333333333333,-1.03
267376,7.711111111111111,-1.01
267377,7.713888888888889,-0.995
267378,7.716666666666667,-0.95
267379,7.719444444444444,-0.95
267380,7.722222222222222,-0.945
267381,7.725,-0.93
267382,7.727777777777778,-0.92
267383,7.730555555555555,-0.9
267384,7.733333333333333,-0.88
267385,7.736111111111111,-0.86
267386,7.738888888888889,-0.825
267387,7.741666666666666,-0.8
267388,7.7444444444444445,-0.755
267389,7.747222222222222,-0.71
267390,7.75,-0.67
267391,7.752777777777778,-0.635
267392,7.7555555555555555,-0.605
267393,7.758333333333334,-0.59
267394,7.761111111111111,-0.56
267395,7.763888888888889,-0.54
267396,7.766666666666667,-0.525
267397,7.769444444444445,-0.49
267398,7.772222222222222,-0.455
267399,7.775,-0.42
267400,7.777777777777778,-0.415
267401,7.780555555555556,-0.4
267402,7.783333333333333,-0.385
267403,7.786111111111111,-0.375
267404,7.788888888888889,-0.355
267405,7.791666666666667,-0.365
267406,7.794444444444444,-0.35
267407,7.7972222222222225,-0.365
267408,7.8,-0.375
267409,7.802777777777778,-0.405
267410,7.805555555555555,-0.42
267411,7.808333333333334,-0.43
267412,7.811111111111111,-0.465
267413,7.813888888888889,-0.5
267414,7.816666666666666,-0.515
267415,7.819444444444445,-0.57
267416,7.822222222222222,-0.615
267417,7.825,-0.68
267418,7.8277777777777775,-0.725
267419,7.830555555555556,-0.785
267420,7.833333333333333,-0.815
267421,7.836111111111111,-0.845
267422,7.838888888888889,-0.895
267423,7.841666666666667,-0.905
267424,7.844444444444444,-0.94
267425,7.847222222222222,-0.955
267426,7.85,-0.965
267427,7.852777777777778,-0.98
267428,7.855555555555555,-1.01
267429,7.858333333333333,-1.04
267430,7.861111111111111,-1.065
267431,7.863888888888889,-1.095
267432,7.866666666666666,-1.09
267433,7.8694444444444445,-1.115
267434,7.872222222222222,-1.115
267435,7.875,-1.105
267436,7.877777777777778,-1.095
267437,7.8805555555555555,-1.09
267438,7.883333333333334,-1.105
267439,7.886111111111111,-1.115
267440,7.888888888888889,-1.105
267441,7.891666666666667,-1.12
267442,7.894444444444445,-1.135
267443,7.897222222222222,-1.13
267444,7.9,-1.115
267445,7.902777777777778,-1.105
267446,7.905555555555556,-1.135
267447,7.908333333333333,-1.115
267448,7.911111111111111,-1.12
267449,7.913888888888889,-1.1
267450,7.916666666666667,-1.075
267451,7.919444444444444,-1.055
267452,7.9222222222222225,-1.055
267453,7.925,-1.06
267454,7.927777777777778,-1.06
267455,7.930555555555555,-1.06
267456,7.933333333333334,-1.085
267457,7.936111111111111,-1.075
267458,7.938888888888889,-1.06
267459,7.941666666666666,-1.06
267460,7.944444444444445,-1.045
267461,7.947222222222222,-1.04
267462,7.95,-1.035
267463,7.9527777777777775,-1.025
267464,7.955555555555556,-1.02
267465,7.958333333333333,-1.04
267466,7.961111111111111,-1.045
267467,7.963888888888889,-1.035
267468,7.966666666666667,-1.06
267469,7.969444444444444,-1.04
267470,7.972222222222222,-1.04
267471,7.975,-1.045
267472,7.977777777777778,-1.045
267473,7.980555555555555,-1.05
267474,7.983333333333333,-1.035
267475,7.986111111111111,-1.035
267476,7.988888888888889,-1.04
267477,7.991666666666666,-1.055
267478,7.9944444444444445,-1.06
267479,7.997222222222222,-1.06
267480,8.0,-1.095
267481,8.002777777777778,-1.08
267482,8.005555555555556,-1.075
267483,8.008333333333333,-1.085
267484,8.011111111111111,-1.075
267485,8.01388888888889,-1.07
267486,8.016666666666667,-1.05
267487,8.019444444444444,-1.045
267488,8.022222222222222,-1.05
267489,8.025,-1.045
267490,8.027777777777779,-1.065
267491,8.030555555555555,-1.08
267492,8.033333333333333,-1.105
267493,8.036111111111111,-1.1
267494,8.03888888888889,-1.1
267495,8.041666666666666,-1.105
267496,8.044444444444444,-1.085
267497,8.047222222222222,-1.065
267498,8.05,-1.07
267499,8.052777777777777,-1.06
267500,8.055555555555555,-1.065
267501,8.058333333333334,-1.065
267502,8.061111111111112,-1.085
267503,8.063888888888888,-1.095
267504,8.066666666666666,-1.11
267505,8.069444444444445,-1.105
267506,8.072222222222223,-1.105
267507,8.075,-1.08
267508,8.077777777777778,-1.075
267509,8.080555555555556,-1.075
267510,8.083333333333334,-1.055
267511,8.08611111111111,-1.065
267512,8.088888888888889,-1.075
267513,8.091666666666667,-1.085
267514,8.094444444444445,-1.09
267515,8.097222222222221,-1.095
267516,8.1,-1.1
267517,8.102777777777778,-1.095
267518,8.105555555555556,-1.115
267519,8.108333333333333,-1.11
267520,8.11111111111111,-1.115
267521,8.113888888888889,-1.085
267522,8.116666666666667,-1.075
267523,8.119444444444444,-1.075
267524,8.122222222222222,-1.07
267525,8.125,-1.085
267526,8.127777777777778,-1.085
267527,8.130555555555556,-1.1
267528,8.133333333333333,-1.1
267529,8.136111111111111,-1.12
267530,8.13888888888889,-1.11
267531,8.141666666666667,-1.085
267532,8.144444444444444,-1.08
267533,8.147222222222222,-1.075
267534,8.15,-1.07
267535,8.152777777777779,-1.07
267536,8.155555555555555,-1.07
267537,8.158333333333333,-1.065
267538,8.161111111111111,-1.08
267539,8.16388888888889,-1.085
267540,8.166666666666666,-1.095
267541,8.169444444444444,-1.09
267542,8.172222222222222,-1.095
267543,8.175,-1.085
267544,8.177777777777777,-1.05
267545,8.180555555555555,-1.025
267546,8.183333333333334,-0.98
267547,8.186111111111112,-0.955
267548,8.188888888888888,-0.96
267549,8.191666666666666,-0.96
267550,8.194444444444445,-0.97
267551,8.197222222222223,-0.97
267552,8.2,-0.975
267553,8.202777777777778,-0.985
267554,8.205555555555556,-0.985
267555,8.208333333333334,-0.97
267556,8.21111111111111,-0.97
267557,8.213888888888889,-0.945
267558,8.216666666666667,-0.925
267559,8.219444444444445,-0.9
267560,8.222222222222221,-0.875
267561,8.225,-0.88
267562,8.227777777777778,-0.89
267563,8.230555555555556,-0.885
267564,8.233333333333333,-0.89
267565,8.23611111111111,-0.915
267566,8.238888888888889,-0.92
267567,8.241666666666667,-0.91
267568,8.244444444444444,-0.915
267569,8.247222222222222,-0.91
267570,8.25,-0.9
267571,8.252777777777778,-0.915
267572,8.255555555555556,-0.92
267573,8.258333333333333,-0.94
267574,8.261111111111111,-0.955
267575,8.26388888888889,-0.995
267576,8.266666666666667,-1.025
267577,8.269444444444444,-1.035
267578,8.272222222222222,-1.06
267579,8.275,-1.065
267580,8.277777777777779,-1.08
267581,8.280555555555555,-1.09
267582,8.283333333333333,-1.1
267583,8.286111111111111,-1.1
267584,8.28888888888889,-1.105
267585,8.291666666666666,-1.12
267586,8.294444444444444,-1.115
267587,8.297222222222222,-1.12
267588,8.3,-1.11
267589,8.302777777777777,-1.125
267590,8.305555555555555,-1.105
267591,8.308333333333334,-1.095
267592,8.311111111111112,-1.095
267593,8.313888888888888,-1.09
267594,8.316666666666666,-1.085
267595,8.319444444444445,-1.085
267596,8.322222222222223,-1.09
267597,8.325,-1.095
267598,8.327777777777778,-1.1
267599,8.330555555555556,-1.095
267600,8.333333333333334,-1.07
267601,8.33611111111111,-1.025
267602,8.338888888888889,-0.935
267603,8.341666666666667,-0.785
267604,8.344444444444445,-0.565
267605,8.347222222222221,-0.26
267606,8.35,0.125
267607,8.352777777777778,0.55
267608,8.355555555555556,1.01
267609,8.358333333333333,1.48
267610,8.36111111111111,1.92
267611,8.363888888888889,2.26
267612,8.366666666666667,2.47
267613,8.369444444444444,2.51
267614,8.372222222222222,2.365
267615,8.375,2.01
267616,8.377777777777778,1.37
267617,8.380555555555556,0.73
267618,8.383333333333333,0.09
267619,8.386111111111111,-0.55
267620,8.38888888888889,-1.19
267621,8.391666666666667,-1.625
267622,8.394444444444444,-1.41
267623,8.397222222222222,-1.11
267624,8.4,-0.855
267625,8.402777777777779,-0.73
267626,8.405555555555555,-0.72
267627,8.408333333333333,-0.785
267628,8.411111111111111,-0.885
267629,8.41388888888889,-0.985
267630,8.416666666666666,-1.05
267631,8.419444444444444,-1.085
267632,8.422222222222222,-1.095
267633,8.425,-1.06
267634,8.427777777777777,-1.065
267635,8.430555555555555,-1.065
267636,8.433333333333334,-1.075
267637,8.436111111111112,-1.07
267638,8.438888888888888,-1.065
267639,8.441666666666666,-1.05
267640,8.444444444444445,-1.045
267641,8.447222222222223,-1.045
267642,8.45,-1.03
267643,8.452777777777778,-1.025
267644,8.455555555555556,-1.035
267645,8.458333333333334,-1.04
267646,8.46111111111111,-1.025
267647,8.463888888888889,-1.03
267648,8.466666666666667,-1.04
267649,8.469444444444445,-1.025
267650,8.472222222222221,-1.02
267651,8.475,-1.01
267652,8.477777777777778,-0.995
267653,8.480555555555556,-0.97
267654,8.483333333333333,-0.955
267655,8.48611111111111,-0.95
267656,8.488888888888889,-0.95
267657,8.491666666666667,-0.945
267658,8.494444444444444,-0.955
267659,8.497222222222222,-0.95
267660,8.5,-0.96
267661,8.502777777777778,-0.95
267662,8.505555555555556,-0.95
267663,8.508333333333333,-0.93
267664,8.511111111111111,-0.91
267665,8.51388888888889,-0.895
267666,8.516666666666667,-0.885
267667,8.519444444444444,-0.85
267668,8.522222222222222,-0.85
267669,8.525,-0.825
267670,8.527777777777779,-0.83
267671,8.530555555555555,-0.815
267672,8.533333333333333,-0.805
267673,8.536111111111111,-0.795
267674,8.53888888888889,-0.785
267675,8.541666666666666,-0.755
267676,8.544444444444444,-0.715
267677,8.547222222222222,-0.675
267678,8.55,-0.665
267679,8.552777777777777,-0.66
267680,8.555555555555555,-0.615
267681,8.558333333333334,-0.585
267682,8.561111111111112,-0.56
267683,8.563888888888888,-0.54
267684,8.566666666666666,-0.495
267685,8.569444444444445,-0.475
267686,8.572222222222223,-0.435
267687,8.575,-0.395
267688,8.577777777777778,-0.36
267689,8.580555555555556,-0.33
267690,8.583333333333334,-0.305
267691,8.58611111111111,-0.305
267692,8.588888888888889,-0.27
267693,8.591666666666667,-0.27
267694,8.594444444444445,-0.25
267695,8.597222222222221,-0.255
267696,8.6,-0.27
267697,8.602777777777778,-0.3
267698,8.605555555555556,-0.295
267699,8.608333333333333,-0.295
267700,8.61111111111111,-0.315
267701,8.613888888888889,-0.33
267702,8.616666666666667,-0.345
267703,8.619444444444444,-0.395
267704,8.622222222222222,-0.43
267705,8.625,-0.485
267706,8.627777777777778,-0.53
267707,8.630555555555556,-0.585
267708,8.633333333333333,-0.66
267709,8.636111111111111,-0.69
267710,8.63888888888889,-0.73
267711,8.641666666666667,-0.795
267712,8.644444444444444,-0.825
267713,8.647222222222222,-0.84
267714,8.65,-0.845
267715,8.652777777777779,-0.875
267716,8.655555555555555,-0.895
267717,8.658333333333333,-0.91
267718,8.661111111111111,-0.94
267719,8.66388888888889,-0.965
267720,8.666666666666666,-0.985
267721,8.669444444444444,-0.995
267722,8.672222222222222,-1.02
267723,8.675,-1.02
267724,8.677777777777777,-1.015
267725,8.680555555555555,-1.0
267726,8.683333333333334,-1.005
267727,8.686111111111112,-1.025
267728,8.688888888888888,-1.005
267729,8.691666666666666,-1.0
267730,8.694444444444445,-1.025
267731,8.697222222222223,-1.04
267732,8.7,-1.045
267733,8.702777777777778,-1.04
267734,8.705555555555556,-1.045
267735,8.708333333333334,-1.045
267736,8.71111111111111,-1.02
267737,8.713888888888889,-1.025
267738,8.716666666666667,-1.005
267739,8.719444444444445,-0.99
267740,8.722222222222221,-0.985
267741,8.725,-0.99
267742,8.727777777777778,-1.03
267743,8.730555555555556,-1.02
267744,8.733333333333333,-1.025
267745,8.73611111111111,-1.03
267746,8.738888888888889,-1.015
267747,8.741666666666667,-0.985
267748,8.744444444444444,-0.975
267749,8.747222222222222,-0.97
267750,8.75,-0.96
267751,8.752777777777778,-0.96
267752,8.755555555555556,-0.945
267753,8.758333333333333,-0.96
267754,8.761111111111111,-0.97
267755,8.76388888888889,-0.99
267756,8.766666666666667,-0.985
267757,8.769444444444444,-0.985
267758,8.772222222222222,-0.99
267759,8.775,-0.98
267760,8.777777777777779,-0.97
267761,8.780555555555555,-0.965
267762,8.783333333333333,-0.955
267763,8.786111111111111,-0.97
267764,8.78888888888889,-0.97
267765,8.791666666666666,-0.995
267766,8.794444444444444,-1.005
267767,8.797222222222222,-1.015
267768,8.8,-1.02
267769,8.802777777777777,-1.02
267770,8.805555555555555,-1.015
267771,8.808333333333334,-1.015
267772,8.811111111111112,-1.015
267773,8.813888888888888,-1.015
267774,8.816666666666666,-0.995
267775,8.819444444444445,-1.0
267776,8.822222222222223,-1.015
267777,8.825,-1.01
267778,8.827777777777778,-1.025
267779,8.830555555555556,-1.05
267780,8.833333333333334,-1.035
267781,8.83611111111111,-1.035
267782,8.838888888888889,-1.045
267783,8.841666666666667,-1.035
267784,8.844444444444445,-1.035
267785,8.847222222222221,-1.03
267786,8.85,-1.025
267787,8.852777777777778,-1.03
267788,8.855555555555556,-1.025
267789,8.858333333333333,-1.045
267790,8.86111111111111,-1.035
267791,8.863888888888889,-1.045
267792,8.866666666666667,-1.055
267793,8.869444444444444,-1.06
267794,8.872222222222222,-1.06
267795,8.875,-1.06
267796,8.877777777777778,-1.045
267797,8.880555555555556,-1.05
267798,8.883333333333333,-1.04
267799,8.886111111111111,-1.05
267800,8.88888888888889,-1.07
267801,8.891666666666667,-1.065
267802,8.894444444444444,-1.08
267803,8.897222222222222,-1.09
267804,8.9,-1.085
267805,8.902777777777779,-1.09
267806,8.905555555555555,-1.085
267807,8.908333333333333,-1.08
267808,8.911111111111111,-1.06
267809,8.91388888888889,-1.065
267810,8.916666666666666,-1.065
267811,8.919444444444444,-1.06
267812,8.922222222222222,-1.055
267813,8.925,-1.07
267814,8.927777777777777,-1.07
267815,8.930555555555555,-1.08
267816,8.933333333333334,-1.09
267817,8.936111111111112,-1.08
267818,8.938888888888888,-1.08
267819,8.941666666666666,-1.07
267820,8.944444444444445,-1.065
267821,8.947222222222223,-1.065
267822,8.95,-1.055
267823,8.952777777777778,-1.05
267824,8.955555555555556,-1.065
267825,8.958333333333334,-1.055
267826,8.96111111111111,-1.07
267827,8.963888888888889,-1.085
267828,8.966666666666667,-1.09
267829,8.969444444444445,-1.095
267830,8.972222222222221,-1.105
267831,8.975,-1.07
267832,8.977777777777778,-1.05
267833,8.980555555555556,-1.03
267834,8.983333333333333,-1.0
267835,8.98611111111111,-0.97
267836,8.988888888888889,-0.96
267837,8.991666666666667,-0.95
267838,8.994444444444444,-0.955
267839,8.997222222222222,-0.955
267840,9.0,-0.955
267841,9.002777777777778,-0.96
267842,9.005555555555556,-0.965
267843,9.008333333333333,-0.96
267844,9.011111111111111,-0.96
267845,9.01388888888889,-0.96
267846,9.016666666666667,-0.92
267847,9.019444444444444,-0.925
267848,9.022222222222222,-0.92
267849,9.025,-0.905
267850,9.027777777777779,-0.91
267851,9.030555555555555,-0.895
267852,9.033333333333333,-0.89
267853,9.036111111111111,-0.905
267854,9.03888888888889,-0.91
267855,9.041666666666666,-0.915
267856,9.044444444444444,-0.915
267857,9.047222222222222,-0.905
267858,9.05,-0.895
267859,9.052777777777777,-0.89
267860,9.055555555555555,-0.915
267861,9.058333333333334,-0.935
267862,9.061111111111112,-0.93
267863,9.063888888888888,-0.96
267864,9.066666666666666,-0.965
267865,9.069444444444445,-1.005
267866,9.072222222222223,-1.03
267867,9.075,-1.04
267868,9.077777777777778,-1.06
267869,9.080555555555556,-1.075
267870,9.083333333333334,-1.08
267871,9.08611111111111,-1.09
267872,9.088888888888889,-1.11
267873,9.091666666666667,-1.11
267874,9.094444444444445,-1.11
267875,9.097222222222221,-1.115
267876,9.1,-1.11
267877,9.102777777777778,-1.11
267878,9.105555555555556,-1.115
267879,9.108333333333333,-1.105
267880,9.11111111111111,-1.1
267881,9.113888888888889,-1.105
267882,9.116666666666667,-1.1
267883,9.119444444444444,-1.08
267884,9.122222222222222,-1.09
267885,9.125,-1.095
267886,9.127777777777778,-1.085
267887,9.130555555555556,-1.125
267888,9.133333333333333,-1.125
267889,9.136111111111111,-1.13
267890,9.13888888888889,-1.11
267891,9.141666666666667,-1.065
267892,9.144444444444444,-1.02
267893,9.147222222222222,-0.895
267894,9.15,-0.735
267895,9.152777777777779,-0.535
267896,9.155555555555555,-0.25
267897,9.158333333333333,0.07
267898,9.161111111111111,0.415
267899,9.16388888888889,0.785
267900,9.166666666666666,1.165
267901,9.169444444444444,1.55
267902,9.172222222222222,1.935
267903,9.175,2.25
267904,9.177777777777777,2.46
267905,9.180555555555555,2.545
267906,9.183333333333334,2.525
267907,9.186111111111112,2.335
267908,9.188888888888888,1.93
267909,9.191666666666666,1.29
267910,9.194444444444445,0.65
267911,9.197222222222223,0.01
267912,9.2,-0.63
267913,9.202777777777778,-1.27
267914,9.205555555555556,-1.48
267915,9.208333333333334,-1.275
267916,9.21111111111111,-1.0
267917,9.213888888888889,-0.8
267918,9.216666666666667,-0.71
267919,9.219444444444445,-0.735
267920,9.222222222222221,-0.82
267921,9.225,-0.92
267922,9.227777777777778,-1.015
267923,9.230555555555556,-1.08
267924,9.233333333333333,-1.085
267925,9.23611111111111,-1.095
267926,9.238888888888889,-1.09
267927,9.241666666666667,-1.065
267928,9.244444444444444,-1.06
267929,9.247222222222222,-1.06
267930,9.25,-1.055
267931,9.252777777777778,-1.065
267932,9.255555555555556,-1.08
267933,9.258333333333333,-1.07
267934,9.261111111111111,-1.09
267935,9.26388888888889,-1.085
267936,9.266666666666667,-1.085
267937,9.269444444444444,-1.08
267938,9.272222222222222,-1.085
267939,9.275,-1.07
267940,9.277777777777779,-1.055
267941,9.280555555555555,-1.035
267942,9.283333333333333,-1.025
267943,9.286111111111111,-1.02
267944,9.28888888888889,-1.03
267945,9.291666666666666,-1.035
267946,9.294444444444444,-1.05
267947,9.297222222222222,-1.05
267948,9.3,-1.05
267949,9.302777777777777,-1.05
267950,9.305555555555555,-1.04
267951,9.308333333333334,-1.045
267952,9.311111111111112,-1.03
267953,9.313888888888888,-0.995
267954,9.316666666666666,-0.985
267955,9.319444444444445,-0.985
267956,9.322222222222223,-0.965
267957,9.325,-0.945
267958,9.327777777777778,-0.955
267959,9.330555555555556,-0.95
267960,9.333333333333334,-0.96
267961,9.33611111111111,-0.935
267962,9.338888888888889,-0.935
267963,9.341666666666667,-0.92
267964,9.344444444444445,-0.9
267965,9.347222222222221,-0.86
267966,9.35,-0.83
267967,9.352777777777778,-0.825
267968,9.355555555555556,-0.81
267969,9.358333333333333,-0.805
267970,9.36111111111111,-0.79
267971,9.363888888888889,-0.775
267972,9.366666666666667,-0.75
267973,9.369444444444444,-0.72
267974,9.372222222222222,-0.7
267975,9.375,-0.665
267976,9.377777777777778,-0.64
267977,9.380555555555556,-0.605
267978,9.383333333333333,-0.57
267979,9.386111111111111,-0.525
267980,9.38888888888889,-0.505
267981,9.391666666666667,-0.48
267982,9.394444444444444,-0.46
267983,9.397222222222222,-0.445
267984,9.4,-0.44
267985,9.402777777777779,-0.43
267986,9.405555555555555,-0.425
267987,9.408333333333333,-0.395
267988,9.411111111111111,-0.36
267989,9.41388888888889,-0.34
267990,9.416666666666666,-0.32
267991,9.419444444444444,-0.3
267992,9.422222222222222,-0.33
267993,9.425,-0.345
267994,9.427777777777777,-0.38
267995,9.430555555555555,-0.37
267996,9.433333333333334,-0.4
267997,9.436111111111112,-0.44
267998,9.438888888888888,-0.47
267999,9.441666666666666,-0.51
268000,9.444444444444445,-0.545
268001,9.447222222222223,-0.595
268002,9.45,-0.625
268003,9.452777777777778,-0.66
268004,9.455555555555556,-0.705
268005,9.458333333333334,-0.745
268006,9.46111111111111,-0.8
268007,9.463888888888889,-0.855
268008,9.466666666666667,-0.885
268009,9.469444444444445,-0.945
268010,9.472222222222221,-0.97
268011,9.475,-0.99
268012,9.477777777777778,-1.005
268013,9.480555555555556,-1.015
268014,9.483333333333333,-1.03
268015,9.48611111111111,-1.05
268016,9.488888888888889,-1.06
268017,9.491666666666667,-1.08
268018,9.494444444444444,-1.1
268019,9.497222222222222,-1.12
268020,9.5,-1.145
268021,9.502777777777778,-1.145
268022,9.505555555555556,-1.165
268023,9.508333333333333,-1.15
268024,9.511111111111111,-1.135
268025,9.51388888888889,-1.135
268026,9.516666666666667,-1.125
268027,9.519444444444444,-1.125
268028,9.522222222222222,-1.135
268029,9.525,-1.135
268030,9.527777777777779,-1.145
268031,9.530555555555555,-1.15
268032,9.533333333333333,-1.16
268033,9.536111111111111,-1.16
268034,9.53888888888889,-1.175
268035,9.541666666666666,-1.155
268036,9.544444444444444,-1.155
268037,9.547222222222222,-1.145
268038,9.55,-1.13
268039,9.552777777777777,-1.12
268040,9.555555555555555,-1.12
268041,9.558333333333334,-1.13
268042,9.561111111111112,-1.115
268043,9.563888888888888,-1.115
268044,9.566666666666666,-1.12
268045,9.569444444444445,-1.14
268046,9.572222222222223,-1.125
268047,9.575,-1.11
268048,9.577777777777778,-1.1
268049,9.580555555555556,-1.09
268050,9.583333333333334,-1.08
268051,9.58611111111111,-1.09
268052,9.588888888888889,-1.105
268053,9.591666666666667,-1.095
268054,9.594444444444445,-1.115
268055,9.597222222222221,-1.125
268056,9.6,-1.125
268057,9.602777777777778,-1.15
268058,9.605555555555556,-1.145
268059,9.608333333333333,-1.14
268060,9.61111111111111,-1.135
268061,9.613888888888889,-1.125
268062,9.616666666666667,-1.1
268063,9.619444444444444,-1.11
268064,9.622222222222222,-1.12
268065,9.625,-1.125
268066,9.627777777777778,-1.155
268067,9.630555555555556,-1.165
268068,9.633333333333333,-1.16
268069,9.636111111111111,-1.185
268070,9.63888888888889,-1.18
268071,9.641666666666667,-1.19
268072,9.644444444444444,-1.185
268073,9.647222222222222,-1.165
268074,9.65,-1.16
268075,9.652777777777779,-1.155
268076,9.655555555555555,-1.165
268077,9.658333333333333,-1.175
268078,9.661111111111111,-1.185
268079,9.66388888888889,-1.185
268080,9.666666666666666,-1.21
268081,9.669444444444444,-1.22
268082,9.672222222222222,-1.23
268083,9.675,-1.21
268084,9.677777777777777,-1.205
268085,9.680555555555555,-1.205
268086,9.683333333333334,-1.2
268087,9.686111111111112,-1.195
268088,9.688888888888888,-1.205
268089,9.691666666666666,-1.215
268090,9.694444444444445,-1.21
268091,9.697222222222223,-1.23
268092,9.7,-1.23
268093,9.702777777777778,-1.23
268094,9.705555555555556,-1.23
268095,9.708333333333334,-1.23
268096,9.71111111111111,-1.225
268097,9.713888888888889,-1.2
268098,9.716666666666667,-1.185
268099,9.719444444444445,-1.205
268100,9.722222222222221,-1.19
268101,9.725,-1.195
268102,9.727777777777778,-1.215
268103,9.730555555555556,-1.23
268104,9.733333333333333,-1.23
268105,9.73611111111111,-1.23
268106,9.738888888888889,-1.245
268107,9.741666666666667,-1.225
268108,9.744444444444444,-1.225
268109,9.747222222222222,-1.22
268110,9.75,-1.205
268111,9.752777777777778,-1.205
268112,9.755555555555556,-1.205
268113,9.758333333333333,-1.23
268114,9.761111111111111,-1.24
268115,9.76388888888889,-1.225
268116,9.766666666666667,-1.235
268117,9.769444444444444,-1.235
268118,9.772222222222222,-1.22
268119,9.775,-1.22
268120,9.777777777777779,-1.19
268121,9.780555555555555,-1.18
268122,9.783333333333333,-1.135
268123,9.786111111111111,-1.12
268124,9.78888888888889,-1.115
268125,9.791666666666666,-1.12
268126,9.794444444444444,-1.105
268127,9.797222222222222,-1.12
268128,9.8,-1.12
268129,9.802777777777777,-1.14
268130,9.805555555555555,-1.12
268131,9.808333333333334,-1.115
268132,9.811111111111112,-1.1
268133,9.813888888888888,-1.08
268134,9.816666666666666,-1.075
268135,9.819444444444445,-1.055
268136,9.822222222222223,-1.045
268137,9.825,-1.04
268138,9.827777777777778,-1.025
268139,9.830555555555556,-1.04
268140,9.833333333333334,-1.045
268141,9.83611111111111,-1.055
268142,9.838888888888889,-1.065
268143,9.841666666666667,-1.065
268144,9.844444444444445,-1.055
268145,9.847222222222221,-1.065
268146,9.85,-1.07
268147,9.852777777777778,-1.065
268148,9.855555555555556,-1.075
268149,9.858333333333333,-1.065
268150,9.86111111111111,-1.1
268151,9.863888888888889,-1.145
268152,9.866666666666667,-1.155
268153,9.869444444444444,-1.205
268154,9.872222222222222,-1.235
268155,9.875,-1.245
268156,9.877777777777778,-1.25
268157,9.880555555555556,-1.275
268158,9.883333333333333,-1.27
268159,9.886111111111111,-1.275
268160,9.88888888888889,-1.25
268161,9.891666666666667,-1.255
268162,9.894444444444444,-1.255
268163,9.897222222222222,-1.25
268164,9.9,-1.245
268165,9.902777777777779,-1.25
268166,9.905555555555555,-1.255
268167,9.908333333333333,-1.24
268168,9.911111111111111,-1.255
268169,9.91388888888889,-1.25
268170,9.916666666666666,-1.23
268171,9.919444444444444,-1.235
268172,9.922222222222222,-1.24
268173,9.925,-1.245
268174,9.927777777777777,-1.24
268175,9.930555555555555,-1.24
268176,9.933333333333334,-1.205
268177,9.936111111111112,-1.145
268178,9.938888888888888,-0.975
268179,9.941666666666666,-0.755
268180,9.944444444444445,-0.425
268181,9.947222222222223,-0.065
268182,9.95,0.365
268183,9.952777777777778,0.785
268184,9.955555555555556,1.215
268185,9.958333333333334,1.645
268186,9.96111111111111,2.01
268187,9.963888888888889,2.28
268188,9.966666666666667,2.425
268189,9.969444444444445,2.44
268190,9.972222222222221,2.25
268191,9.975,1.83
268192,9.977777777777778,1.19
268193,9.980555555555556,0.55
268194,9.983333333333333,-0.09
268195,9.98611111111111,-0.73
268196,9.988888888888889,-1.37
268197,9.991666666666667,-1.66
268198,9.994444444444444,-1.455
268199,9.997222222222222,-1.195
