source_sample,relative_time_s,raw_MLII
606600,0.0,-0.12
606601,0.002777777777777778,-0.13
606602,0.005555555555555556,-0.155
606603,0.008333333333333333,-0.16
606604,0.011111111111111112,-0.145
606605,0.013888888888888888,-0.155
606606,0.016666666666666666,-0.145
606607,0.019444444444444445,-0.145
606608,0.022222222222222223,-0.15
606609,0.025,-0.14
606610,0.027777777777777776,-0.14
606611,0.030555555555555555,-0.155
606612,0.03333333333333333,-0.175
606613,0.03611111111111111,-0.21
606614,0.03888888888888889,-0.22
606615,0.041666666666666664,-0.205
606616,0.044444444444444446,-0.19
606617,0.04722222222222222,-0.19
606618,0.05,-0.19
606619,0.05277777777777778,-0.19
606620,0.05555555555555555,-0.2
606621,0.058333333333333334,-0.19
606622,0.06111111111111111,-0.185
606623,0.06388888888888888,-0.19
606624,0.06666666666666667,-0.2
606625,0.06944444444444445,-0.21
606626,0.07222222222222222,-0.225
606627,0.075,-0.21
606628,0.07777777777777778,-0.19
606629,0.08055555555555556,-0.195
606630,0.08333333333333333,-0.19
606631,0.08611111111111111,-0.195
606632,0.08888888888888889,-0.195
606633,0.09166666666666666,-0.18
606634,0.09444444444444444,-0.175
606635,0.09722222222222222,-0.19
606636,0.1,-0.195
606637,0.10277777777777777,-0.2
606638,0.10555555555555556,-0.215
606639,0.10833333333333334,-0.225
606640,0.1111111111111111,-0.215
606641,0.11388888888888889,-0.22
606642,0.11666666666666667,-0.185
606643,0.11944444444444445,-0.13
606644,0.12222222222222222,-0.045
606645,0.125,0.08
606646,0.12777777777777777,0.19
606647,0.13055555555555556,0.28
606648,0.13333333333333333,0.355
606649,0.1361111111111111,0.415
606650,0.1388888888888889,0.485
606651,0.14166666666666666,0.58
606652,0.14444444444444443,0.695
606653,0.14722222222222223,0.83
606654,0.15,0.93
606655,0.1527777777777778,0.97
606656,0.15555555555555556,0.93
606657,0.15833333333333333,0.825
606658,0.16111111111111112,0.705
606659,0.1638888888888889,0.575
606660,0.16666666666666666,0.43
606661,0.16944444444444445,0.225
606662,0.17222222222222222,0.005
606663,0.175,-0.17
606664,0.17777777777777778,-0.31
606665,0.18055555555555555,-0.405
606666,0.18333333333333332,-0.45
606667,0.18611111111111112,-0.45
606668,0.18888888888888888,-0.42
606669,0.19166666666666668,-0.37
606670,0.19444444444444445,-0.305
606671,0.19722222222222222,-0.275
606672,0.2,-0.28
606673,0.20277777777777778,-0.275
606674,0.20555555555555555,-0.28
606675,0.20833333333333334,-0.255
606676,0.2111111111111111,-0.21
606677,0.21388888888888888,-0.205
606678,0.21666666666666667,-0.245
606679,0.21944444444444444,-0.32
606680,0.2222222222222222,-0.4
606681,0.225,-0.445
606682,0.22777777777777777,-0.45
606683,0.23055555555555557,-0.435
606684,0.23333333333333334,-0.41
606685,0.2361111111111111,-0.385
606686,0.2388888888888889,-0.36
606687,0.24166666666666667,-0.335
606688,0.24444444444444444,-0.3
606689,0.24722222222222223,-0.295
606690,0.25,-0.31
606691,0.25277777777777777,-0.32
606692,0.25555555555555554,-0.32
606693,0.25833333333333336,-0.31
606694,0.2611111111111111,-0.305
606695,0.2638888888888889,-0.3
606696,0.26666666666666666,-0.295
606697,0.26944444444444443,-0.315
606698,0.2722222222222222,-0.305
606699,0.275,-0.295
606700,0.2777777777777778,-0.3
606701,0.28055555555555556,-0.305
606702,0.2833333333333333,-0.305
606703,0.2861111111111111,-0.31
606704,0.28888888888888886,-0.29
606705,0.2916666666666667,-0.275
606706,0.29444444444444445,-0.275
606707,0.2972222222222222,-0.29
606708,0.3,-0.29
606709,0.30277777777777776,-0.295
606710,0.3055555555555556,-0.29
606711,0.30833333333333335,-0.285
606712,0.3111111111111111,-0.27
606713,0.3138888888888889,-0.27
606714,0.31666666666666665,-0.27
606715,0.3194444444444444,-0.275
606716,0.32222222222222224,-0.265
606717,0.325,-0.265
606718,0.3277777777777778,-0.245
606719,0.33055555555555555,-0.24
606720,0.3333333333333333,-0.24
606721,0.33611111111111114,-0.255
606722,0.3388888888888889,-0.25
606723,0.3416666666666667,-0.235
606724,0.34444444444444444,-0.225
606725,0.3472222222222222,-0.235
606726,0.35,-0.24
606727,0.3527777777777778,-0.235
606728,0.35555555555555557,-0.23
606729,0.35833333333333334,-0.22
606730,0.3611111111111111,-0.205
606731,0.3638888888888889,-0.2
606732,0.36666666666666664,-0.2
606733,0.36944444444444446,-0.21
606734,0.37222222222222223,-0.2
606735,0.375,-0.18
606736,0.37777777777777777,-0.175
606737,0.38055555555555554,-0.175
606738,0.38333333333333336,-0.17
606739,0.3861111111111111,-0.175
606740,0.3888888888888889,-0.155
606741,0.39166666666666666,-0.135
606742,0.39444444444444443,-0.11
606743,0.3972222222222222,-0.11
606744,0.4,-0.105
606745,0.4027777777777778,-0.105
606746,0.40555555555555556,-0.105
606747,0.4083333333333333,-0.105
606748,0.4111111111111111,-0.095
606749,0.41388888888888886,-0.1
606750,0.4166666666666667,-0.105
606751,0.41944444444444445,-0.1
606752,0.4222222222222222,-0.085
606753,0.425,-0.05
606754,0.42777777777777776,-0.035
606755,0.4305555555555556,-0.025
606756,0.43333333333333335,0.005
606757,0.4361111111111111,0.01
606758,0.4388888888888889,0.035
606759,0.44166666666666665,0.07
606760,0.4444444444444444,0.095
606761,0.44722222222222224,0.075
606762,0.45,0.03
606763,0.4527777777777778,-0.025
606764,0.45555555555555555,-0.065
606765,0.4583333333333333,-0.085
606766,0.46111111111111114,-0.095
606767,0.4638888888888889,-0.08
606768,0.4666666666666667,-0.05
606769,0.46944444444444444,-0.055
606770,0.4722222222222222,-0.04
606771,0.475,-0.045
606772,0.4777777777777778,-0.035
606773,0.48055555555555557,-0.04
606774,0.48333333333333334,-0.03
606775,0.4861111111111111,-0.03
606776,0.4888888888888889,-0.03
606777,0.49166666666666664,-0.025
606778,0.49444444444444446,-0.03
606779,0.49722222222222223,-0.05
606780,0.5,-0.065
606781,0.5027777777777778,-0.075
606782,0.5055555555555555,-0.08
606783,0.5083333333333333,-0.08
606784,0.5111111111111111,-0.085
606785,0.5138888888888888,-0.09
606786,0.5166666666666667,-0.1
606787,0.5194444444444445,-0.11
606788,0.5222222222222223,-0.12
606789,0.525,-0.115
606790,0.5277777777777778,-0.11
606791,0.5305555555555556,-0.11
606792,0.5333333333333333,-0.125
606793,0.5361111111111111,-0.14
606794,0.5388888888888889,-0.15
606795,0.5416666666666666,-0.15
606796,0.5444444444444444,-0.135
606797,0.5472222222222223,-0.125
606798,0.55,-0.135
606799,0.5527777777777778,-0.135
606800,0.5555555555555556,-0.115
606801,0.5583333333333333,-0.1
606802,0.5611111111111111,-0.1
606803,0.5638888888888889,-0.12
606804,0.5666666666666667,-0.165
606805,0.5694444444444444,-0.19
606806,0.5722222222222222,-0.205
606807,0.575,-0.19
606808,0.5777777777777777,-0.175
606809,0.5805555555555556,-0.18
606810,0.5833333333333334,-0.195
606811,0.5861111111111111,-0.2
606812,0.5888888888888889,-0.215
606813,0.5916666666666667,-0.21
606814,0.5944444444444444,-0.2
606815,0.5972222222222222,-0.21
606816,0.6,-0.2
606817,0.6027777777777777,-0.2
606818,0.6055555555555555,-0.2
606819,0.6083333333333333,-0.185
606820,0.6111111111111112,-0.195
606821,0.6138888888888889,-0.2
606822,0.6166666666666667,-0.21
606823,0.6194444444444445,-0.225
606824,0.6222222222222222,-0.23
606825,0.625,-0.22
606826,0.6277777777777778,-0.19
606827,0.6305555555555555,-0.195
606828,0.6333333333333333,-0.175
606829,0.6361111111111111,-0.18
606830,0.6388888888888888,-0.155
606831,0.6416666666666667,-0.145
606832,0.6444444444444445,-0.125
606833,0.6472222222222223,-0.115
606834,0.65,-0.095
606835,0.6527777777777778,-0.09
606836,0.6555555555555556,-0.075
606837,0.6583333333333333,-0.07
606838,0.6611111111111111,-0.075
606839,0.6638888888888889,-0.08
606840,0.6666666666666666,-0.065
606841,0.6694444444444444,-0.025
606842,0.6722222222222223,0.025
606843,0.675,0.065
606844,0.6777777777777778,0.08
606845,0.6805555555555556,0.075
606846,0.6833333333333333,0.05
606847,0.6861111111111111,0.0
606848,0.6888888888888889,-0.035
606849,0.6916666666666667,-0.09
606850,0.6944444444444444,-0.185
606851,0.6972222222222222,-0.38
606852,0.7,-0.67
606853,0.7027777777777777,-1.04
606854,0.7055555555555556,-1.405
606855,0.7083333333333334,-1.705
606856,0.7111111111111111,-1.885
606857,0.7138888888888889,-2.0
606858,0.7166666666666667,-2.04
606859,0.7194444444444444,-2.035
606860,0.7222222222222222,-1.995
606861,0.725,-1.965
606862,0.7277777777777777,-1.925
606863,0.7305555555555555,-1.84
606864,0.7333333333333333,-1.73
606865,0.7361111111111112,-1.62
606866,0.7388888888888889,-1.51
606867,0.7416666666666667,-1.43
606868,0.7444444444444445,-1.35
606869,0.7472222222222222,-1.295
606870,0.75,-1.245
606871,0.7527777777777778,-1.175
606872,0.7555555555555555,-1.075
606873,0.7583333333333333,-0.985
606874,0.7611111111111111,-0.915
606875,0.7638888888888888,-0.86
606876,0.7666666666666667,-0.805
606877,0.7694444444444445,-0.76
606878,0.7722222222222223,-0.72
606879,0.775,-0.665
606880,0.7777777777777778,-0.63
606881,0.7805555555555556,-0.605
606882,0.7833333333333333,-0.555
606883,0.7861111111111111,-0.53
606884,0.7888888888888889,-0.52
606885,0.7916666666666666,-0.485
606886,0.7944444444444444,-0.445
606887,0.7972222222222223,-0.39
606888,0.8,-0.31
606889,0.8027777777777778,-0.245
606890,0.8055555555555556,-0.18
606891,0.8083333333333333,-0.13
606892,0.8111111111111111,-0.085
606893,0.8138888888888889,-0.055
606894,0.8166666666666667,-0.02
606895,0.8194444444444444,0.0
606896,0.8222222222222222,0.025
606897,0.825,0.04
606898,0.8277777777777777,0.07
606899,0.8305555555555556,0.095
606900,0.8333333333333334,0.105
606901,0.8361111111111111,0.13
606902,0.8388888888888889,0.165
606903,0.8416666666666667,0.195
606904,0.8444444444444444,0.225
606905,0.8472222222222222,0.225
606906,0.85,0.225
606907,0.8527777777777777,0.23
606908,0.8555555555555555,0.255
606909,0.8583333333333333,0.26
606910,0.8611111111111112,0.265
606911,0.8638888888888889,0.26
606912,0.8666666666666667,0.25
606913,0.8694444444444445,0.255
606914,0.8722222222222222,0.29
606915,0.875,0.32
606916,0.8777777777777778,0.36
606917,0.8805555555555555,0.37
606918,0.8833333333333333,0.375
606919,0.8861111111111111,0.36
606920,0.8888888888888888,0.355
606921,0.8916666666666667,0.365
606922,0.8944444444444445,0.37
606923,0.8972222222222223,0.38
606924,0.9,0.395
606925,0.9027777777777778,0.395
606926,0.9055555555555556,0.4
606927,0.9083333333333333,0.415
606928,0.9111111111111111,0.45
606929,0.9138888888888889,0.475
606930,0.9166666666666666,0.49
606931,0.9194444444444444,0.49
606932,0.9222222222222223,0.51
606933,0.925,0.525
606934,0.9277777777777778,0.55
606935,0.9305555555555556,0.555
606936,0.9333333333333333,0.555
606937,0.9361111111111111,0.55
606938,0.9388888888888889,0.56
606939,0.9416666666666667,0.57
606940,0.9444444444444444,0.595
606941,0.9472222222222222,0.61
606942,0.95,0.61
606943,0.9527777777777777,0.585
606944,0.9555555555555556,0.595
606945,0.9583333333333334,0.595
606946,0.9611111111111111,0.62
606947,0.9638888888888889,0.65
606948,0.9666666666666667,0.68
606949,0.9694444444444444,0.695
606950,0.9722222222222222,0.68
606951,0.975,0.645
606952,0.9777777777777777,0.595
606953,0.9805555555555555,0.535
606954,0.9833333333333333,0.495
606955,0.9861111111111112,0.49
606956,0.9888888888888889,0.495
606957,0.9916666666666667,0.52
606958,0.9944444444444445,0.525
606959,0.9972222222222222,0.505
606960,1.0,0.49
606961,1.0027777777777778,0.47
606962,1.0055555555555555,0.46
606963,1.0083333333333333,0.45
606964,1.011111111111111,0.445
606965,1.0138888888888888,0.415
606966,1.0166666666666666,0.405
606967,1.0194444444444444,0.36
606968,1.0222222222222221,0.335
606969,1.025,0.325
606970,1.0277777777777777,0.33
606971,1.0305555555555554,0.34
606972,1.0333333333333334,0.335
606973,1.0361111111111112,0.3
606974,1.038888888888889,0.275
606975,1.0416666666666667,0.25
606976,1.0444444444444445,0.24
606977,1.0472222222222223,0.23
606978,1.05,0.195
606979,1.0527777777777778,0.175
606980,1.0555555555555556,0.18
606981,1.0583333333333333,0.175
606982,1.0611111111111111,0.17
606983,1.0638888888888889,0.175
606984,1.0666666666666667,0.155
606985,1.0694444444444444,0.12
606986,1.0722222222222222,0.095
606987,1.075,0.075
606988,1.0777777777777777,0.06
606989,1.0805555555555555,0.05
606990,1.0833333333333333,0.045
606991,1.086111111111111,0.035
606992,1.0888888888888888,0.03
606993,1.0916666666666666,0.035
606994,1.0944444444444446,0.02
606995,1.0972222222222223,0.0
606996,1.1,-0.02
606997,1.1027777777777779,-0.04
606998,1.1055555555555556,-0.03
606999,1.1083333333333334,-0.03
607000,1.1111111111111112,-0.02
607001,1.113888888888889,-0.02
607002,1.1166666666666667,-0.02
607003,1.1194444444444445,-0.055
607004,1.1222222222222222,-0.055
607005,1.125,-0.055
607006,1.1277777777777778,-0.045
607007,1.1305555555555555,-0.045
607008,1.1333333333333333,-0.06
607009,1.136111111111111,-0.08
607010,1.1388888888888888,-0.08
607011,1.1416666666666666,-0.08
607012,1.1444444444444444,-0.075
607013,1.1472222222222221,-0.07
607014,1.15,-0.065
607015,1.1527777777777777,-0.075
607016,1.1555555555555554,-0.075
607017,1.1583333333333334,-0.08
607018,1.1611111111111112,-0.08
607019,1.163888888888889,-0.09
607020,1.1666666666666667,-0.11
607021,1.1694444444444445,-0.115
607022,1.1722222222222223,-0.11
607023,1.175,-0.12
607024,1.1777777777777778,-0.105
607025,1.1805555555555556,-0.1
607026,1.1833333333333333,-0.105
607027,1.1861111111111111,-0.125
607028,1.1888888888888889,-0.125
607029,1.1916666666666667,-0.12
607030,1.1944444444444444,-0.095
607031,1.1972222222222222,-0.095
607032,1.2,-0.105
607033,1.2027777777777777,-0.125
607034,1.2055555555555555,-0.115
607035,1.2083333333333333,-0.1
607036,1.211111111111111,-0.065
607037,1.2138888888888888,-0.05
607038,1.2166666666666666,-0.065
607039,1.2194444444444446,-0.095
607040,1.2222222222222223,-0.11
607041,1.225,-0.105
607042,1.2277777777777779,-0.1
607043,1.2305555555555556,-0.09
607044,1.2333333333333334,-0.115
607045,1.2361111111111112,-0.145
607046,1.238888888888889,-0.165
607047,1.2416666666666667,-0.16
607048,1.2444444444444445,-0.15
607049,1.2472222222222222,-0.15
607050,1.25,-0.15
607051,1.2527777777777778,-0.155
607052,1.2555555555555555,-0.135
607053,1.2583333333333333,-0.145
607054,1.261111111111111,-0.145
607055,1.2638888888888888,-0.15
607056,1.2666666666666666,-0.165
607057,1.2694444444444444,-0.175
607058,1.2722222222222221,-0.165
607059,1.275,-0.155
607060,1.2777777777777777,-0.13
607061,1.2805555555555554,-0.13
607062,1.2833333333333334,-0.125
607063,1.2861111111111112,-0.135
607064,1.288888888888889,-0.14
607065,1.2916666666666667,-0.135
607066,1.2944444444444445,-0.125
607067,1.2972222222222223,-0.125
607068,1.3,-0.12
607069,1.3027777777777778,-0.125
607070,1.3055555555555556,-0.135
607071,1.3083333333333333,-0.14
607072,1.3111111111111111,-0.135
607073,1.3138888888888889,-0.145
607074,1.3166666666666667,-0.14
607075,1.3194444444444444,-0.14
607076,1.3222222222222222,-0.13
607077,1.325,-0.12
607078,1.3277777777777777,-0.11
607079,1.3305555555555555,-0.115
607080,1.3333333333333333,-0.11
607081,1.336111111111111,-0.115
607082,1.3388888888888888,-0.115
607083,1.3416666666666666,-0.11
607084,1.3444444444444446,-0.11
607085,1.3472222222222223,-0.115
607086,1.35,-0.13
607087,1.3527777777777779,-0.16
607088,1.3555555555555556,-0.16
607089,1.3583333333333334,-0.175
607090,1.3611111111111112,-0.175
607091,1.363888888888889,-0.175
607092,1.3666666666666667,-0.165
607093,1.3694444444444445,-0.155
607094,1.3722222222222222,-0.15
607095,1.375,-0.16
607096,1.3777777777777778,-0.175
607097,1.3805555555555555,-0.185
607098,1.3833333333333333,-0.18
607099,1.386111111111111,-0.185
607100,1.3888888888888888,-0.17
607101,1.3916666666666666,-0.15
607102,1.3944444444444444,-0.14
607103,1.3972222222222221,-0.145
607104,1.4,-0.15
607105,1.4027777777777777,-0.16
607106,1.4055555555555554,-0.15
607107,1.4083333333333334,-0.145
607108,1.4111111111111112,-0.13
607109,1.413888888888889,-0.13
607110,1.4166666666666667,-0.135
607111,1.4194444444444445,-0.14
607112,1.4222222222222223,-0.15
607113,1.425,-0.15
607114,1.4277777777777778,-0.135
607115,1.4305555555555556,-0.13
607116,1.4333333333333333,-0.125
607117,1.4361111111111111,-0.135
607118,1.4388888888888889,-0.135
607119,1.4416666666666667,-0.125
607120,1.4444444444444444,-0.11
607121,1.4472222222222222,-0.115
607122,1.45,-0.125
607123,1.4527777777777777,-0.14
607124,1.4555555555555555,-0.13
607125,1.4583333333333333,-0.13
607126,1.461111111111111,-0.12
607127,1.4638888888888888,-0.125
607128,1.4666666666666666,-0.125
607129,1.4694444444444446,-0.145
607130,1.4722222222222223,-0.14
607131,1.475,-0.135
607132,1.4777777777777779,-0.125
607133,1.4805555555555556,-0.12
607134,1.4833333333333334,-0.13
607135,1.4861111111111112,-0.14
607136,1.488888888888889,-0.135
607137,1.4916666666666667,-0.135
607138,1.4944444444444445,-0.12
607139,1.4972222222222222,-0.135
607140,1.5,-0.15
607141,1.5027777777777778,-0.145
607142,1.5055555555555555,-0.14
607143,1.5083333333333333,-0.125
607144,1.511111111111111,-0.125
607145,1.5138888888888888,-0.12
607146,1.5166666666666666,-0.13
607147,1.5194444444444444,-0.145
607148,1.5222222222222221,-0.14
607149,1.525,-0.13
607150,1.5277777777777777,-0.12
607151,1.5305555555555554,-0.095
607152,1.5333333333333334,-0.085
607153,1.5361111111111112,-0.11
607154,1.538888888888889,-0.14
607155,1.5416666666666667,-0.155
607156,1.5444444444444445,-0.165
607157,1.5472222222222223,-0.18
607158,1.55,-0.18
607159,1.5527777777777778,-0.195
607160,1.5555555555555556,-0.18
607161,1.5583333333333333,-0.175
607162,1.5611111111111111,-0.175
607163,1.5638888888888889,-0.155
607164,1.5666666666666667,-0.145
607165,1.5694444444444444,-0.16
607166,1.5722222222222222,-0.15
607167,1.575,-0.14
607168,1.5777777777777777,-0.12
607169,1.5805555555555555,-0.125
607170,1.5833333333333333,-0.125
607171,1.586111111111111,-0.12
607172,1.5888888888888888,-0.12
607173,1.5916666666666666,-0.13
607174,1.5944444444444446,-0.125
607175,1.5972222222222223,-0.145
607176,1.6,-0.155
607177,1.6027777777777779,-0.155
607178,1.6055555555555556,-0.12
607179,1.6083333333333334,-0.09
607180,1.6111111111111112,-0.065
607181,1.613888888888889,-0.085
607182,1.6166666666666667,-0.12
607183,1.6194444444444445,-0.165
607184,1.6222222222222222,-0.175
607185,1.625,-0.175
607186,1.6277777777777778,-0.165
607187,1.6305555555555555,-0.145
607188,1.6333333333333333,-0.16
607189,1.636111111111111,-0.175
607190,1.6388888888888888,-0.165
607191,1.6416666666666666,-0.145
607192,1.6444444444444444,-0.14
607193,1.6472222222222221,-0.135
607194,1.65,-0.135
607195,1.6527777777777777,-0.155
607196,1.6555555555555554,-0.15
607197,1.6583333333333334,-0.16
607198,1.6611111111111112,-0.145
607199,1.663888888888889,-0.145
607200,1.6666666666666667,-0.15
607201,1.6694444444444445,-0.155
607202,1.6722222222222223,-0.14
607203,1.675,-0.115
607204,1.6777777777777778,-0.105
607205,1.6805555555555556,-0.1
607206,1.6833333333333333,-0.105
607207,1.6861111111111111,-0.115
607208,1.6888888888888889,-0.115
607209,1.6916666666666667,-0.125
607210,1.6944444444444444,-0.13
607211,1.6972222222222222,-0.12
607212,1.7,-0.12
607213,1.7027777777777777,-0.13
607214,1.7055555555555555,-0.125
607215,1.7083333333333333,-0.11
607216,1.711111111111111,-0.115
607217,1.7138888888888888,-0.11
607218,1.7166666666666666,-0.11
607219,1.7194444444444446,-0.115
607220,1.7222222222222223,-0.085
607221,1.725,-0.08
607222,1.7277777777777779,-0.07
607223,1.7305555555555556,-0.1
607224,1.7333333333333334,-0.13
607225,1.7361111111111112,-0.15
607226,1.738888888888889,-0.165
607227,1.7416666666666667,-0.155
607228,1.7444444444444445,-0.135
607229,1.7472222222222222,-0.14
607230,1.75,-0.14
607231,1.7527777777777778,-0.14
607232,1.7555555555555555,-0.145
607233,1.7583333333333333,-0.135
607234,1.761111111111111,-0.125
607235,1.7638888888888888,-0.13
607236,1.7666666666666666,-0.16
607237,1.7694444444444444,-0.185
607238,1.7722222222222221,-0.185
607239,1.775,-0.165
607240,1.7777777777777777,-0.155
607241,1.7805555555555554,-0.165
607242,1.7833333333333334,-0.19
607243,1.7861111111111112,-0.195
607244,1.788888888888889,-0.18
607245,1.7916666666666667,-0.155
607246,1.7944444444444445,-0.13
607247,1.7972222222222223,-0.135
607248,1.8,-0.145
607249,1.8027777777777778,-0.155
607250,1.8055555555555556,-0.145
607251,1.8083333333333333,-0.135
607252,1.8111111111111111,-0.13
607253,1.8138888888888889,-0.135
607254,1.8166666666666667,-0.14
607255,1.8194444444444444,-0.15
607256,1.8222222222222222,-0.16
607257,1.825,-0.19
607258,1.8277777777777777,-0.2
607259,1.8305555555555555,-0.215
607260,1.8333333333333333,-0.21
607261,1.836111111111111,-0.195
607262,1.8388888888888888,-0.165
607263,1.8416666666666666,-0.14
607264,1.8444444444444446,-0.125
607265,1.8472222222222223,-0.125
607266,1.85,-0.135
607267,1.8527777777777779,-0.15
607268,1.8555555555555556,-0.155
607269,1.8583333333333334,-0.16
607270,1.8611111111111112,-0.17
607271,1.863888888888889,-0.18
607272,1.8666666666666667,-0.2
607273,1.8694444444444445,-0.23
607274,1.8722222222222222,-0.25
607275,1.875,-0.24
607276,1.8777777777777778,-0.21
607277,1.8805555555555555,-0.155
607278,1.8833333333333333,-0.08
607279,1.886111111111111,0.0
607280,1.8888888888888888,0.085
607281,1.8916666666666666,0.18
607282,1.8944444444444444,0.29
607283,1.8972222222222221,0.385
607284,1.9,0.49
607285,1.9027777777777777,0.58
607286,1.9055555555555554,0.69
607287,1.9083333333333334,0.795
607288,1.9111111111111112,0.865
607289,1.913888888888889,0.89
607290,1.9166666666666667,0.835
607291,1.9194444444444445,0.72
607292,1.9222222222222223,0.59
607293,1.925,0.44
607294,1.9277777777777778,0.245
607295,1.9305555555555556,-0.025
607296,1.9333333333333333,-0.265
607297,1.9361111111111111,-0.435
607298,1.9388888888888889,-0.505
607299,1.9416666666666667,-0.53
607300,1.9444444444444444,-0.51
607301,1.9472222222222222,-0.445
607302,1.95,-0.4
607303,1.9527777777777777,-0.365
607304,1.9555555555555555,-0.35
607305,1.9583333333333333,-0.325
607306,1.961111111111111,-0.325
607307,1.9638888888888888,-0.31
607308,1.9666666666666666,-0.315
607309,1.9694444444444446,-0.33
607310,1.9722222222222223,-0.335
607311,1.975,-0.34
607312,1.9777777777777779,-0.375
607313,1.9805555555555556,-0.405
607314,1.9833333333333334,-0.415
607315,1.9861111111111112,-0.415
607316,1.988888888888889,-0.38
607317,1.9916666666666667,-0.35
607318,1.9944444444444445,-0.335
607319,1.9972222222222222,-0.32
607320,2.0,-0.32
607321,2.0027777777777778,-0.345
607322,2.0055555555555555,-0.335
607323,2.0083333333333333,-0.325
607324,2.011111111111111,-0.31
607325,2.013888888888889,-0.31
607326,2.0166666666666666,-0.315
607327,2.0194444444444444,-0.33
607328,2.022222222222222,-0.335
607329,2.025,-0.325
607330,2.0277777777777777,-0.31
607331,2.0305555555555554,-0.305
607332,2.033333333333333,-0.32
607333,2.036111111111111,-0.335
607334,2.0388888888888888,-0.33
607335,2.0416666666666665,-0.335
607336,2.0444444444444443,-0.33
607337,2.047222222222222,-0.325
607338,2.05,-0.305
607339,2.0527777777777776,-0.295
607340,2.0555555555555554,-0.285
607341,2.058333333333333,-0.3
607342,2.061111111111111,-0.29
607343,2.063888888888889,-0.29
607344,2.066666666666667,-0.28
607345,2.0694444444444446,-0.275
607346,2.0722222222222224,-0.26
607347,2.075,-0.255
607348,2.077777777777778,-0.26
607349,2.0805555555555557,-0.25
607350,2.0833333333333335,-0.26
607351,2.0861111111111112,-0.28
607352,2.088888888888889,-0.3
607353,2.091666666666667,-0.295
607354,2.0944444444444446,-0.27
607355,2.0972222222222223,-0.26
607356,2.1,-0.275
607357,2.102777777777778,-0.29
607358,2.1055555555555556,-0.295
607359,2.1083333333333334,-0.31
607360,2.111111111111111,-0.31
607361,2.113888888888889,-0.29
607362,2.1166666666666667,-0.29
607363,2.1194444444444445,-0.29
607364,2.1222222222222222,-0.28
607365,2.125,-0.285
607366,2.1277777777777778,-0.275
607367,2.1305555555555555,-0.275
607368,2.1333333333333333,-0.26
607369,2.136111111111111,-0.26
607370,2.138888888888889,-0.24
607371,2.1416666666666666,-0.215
607372,2.1444444444444444,-0.21
607373,2.147222222222222,-0.21
607374,2.15,-0.23
607375,2.1527777777777777,-0.265
607376,2.1555555555555554,-0.245
607377,2.158333333333333,-0.22
607378,2.161111111111111,-0.21
607379,2.1638888888888888,-0.21
607380,2.1666666666666665,-0.23
607381,2.1694444444444443,-0.255
607382,2.172222222222222,-0.25
607383,2.175,-0.23
607384,2.1777777777777776,-0.21
607385,2.1805555555555554,-0.205
607386,2.183333333333333,-0.215
607387,2.186111111111111,-0.23
607388,2.188888888888889,-0.23
607389,2.191666666666667,-0.21
607390,2.1944444444444446,-0.185
607391,2.1972222222222224,-0.17
607392,2.2,-0.18
607393,2.202777777777778,-0.2
607394,2.2055555555555557,-0.195
607395,2.2083333333333335,-0.19
607396,2.2111111111111112,-0.17
607397,2.213888888888889,-0.155
607398,2.216666666666667,-0.15
607399,2.2194444444444446,-0.16
607400,2.2222222222222223,-0.155
607401,2.225,-0.145
607402,2.227777777777778,-0.12
607403,2.2305555555555556,-0.115
607404,2.2333333333333334,-0.105
607405,2.236111111111111,-0.11
607406,2.238888888888889,-0.095
607407,2.2416666666666667,-0.08
607408,2.2444444444444445,-0.075
607409,2.2472222222222222,-0.07
607410,2.25,-0.085
607411,2.2527777777777778,-0.115
607412,2.2555555555555555,-0.135
607413,2.2583333333333333,-0.135
607414,2.261111111111111,-0.12
607415,2.263888888888889,-0.12
607416,2.2666666666666666,-0.125
607417,2.2694444444444444,-0.125
607418,2.272222222222222,-0.125
607419,2.275,-0.135
607420,2.2777777777777777,-0.12
607421,2.2805555555555554,-0.12
607422,2.283333333333333,-0.135
607423,2.286111111111111,-0.16
607424,2.2888888888888888,-0.16
607425,2.2916666666666665,-0.155
607426,2.2944444444444443,-0.15
607427,2.297222222222222,-0.145
607428,2.3,-0.155
607429,2.3027777777777776,-0.17
607430,2.3055555555555554,-0.18
607431,2.308333333333333,-0.17
607432,2.311111111111111,-0.16
607433,2.313888888888889,-0.155
607434,2.316666666666667,-0.175
607435,2.3194444444444446,-0.19
607436,2.3222222222222224,-0.19
607437,2.325,-0.2
607438,2.327777777777778,-0.185
607439,2.3305555555555557,-0.19
607440,2.3333333333333335,-0.21
607441,2.3361111111111112,-0.225
607442,2.338888888888889,-0.23
607443,2.341666666666667,-0.23
607444,2.3444444444444446,-0.225
607445,2.3472222222222223,-0.215
607446,2.35,-0.23
607447,2.352777777777778,-0.25
607448,2.3555555555555556,-0.24
607449,2.3583333333333334,-0.24
607450,2.361111111111111,-0.225
607451,2.363888888888889,-0.235
607452,2.3666666666666667,-0.26
607453,2.3694444444444445,-0.255
607454,2.3722222222222222,-0.23
607455,2.375,-0.2
607456,2.3777777777777778,-0.185
607457,2.3805555555555555,-0.175
607458,2.3833333333333333,-0.175
607459,2.386111111111111,-0.195
607460,2.388888888888889,-0.2
607461,2.3916666666666666,-0.185
607462,2.3944444444444444,-0.19
607463,2.397222222222222,-0.16
607464,2.4,-0.11
607465,2.4027777777777777,-0.075
607466,2.4055555555555554,-0.045
607467,2.408333333333333,-0.06
607468,2.411111111111111,-0.08
607469,2.4138888888888888,-0.13
607470,2.4166666666666665,-0.15
607471,2.4194444444444443,-0.14
607472,2.422222222222222,-0.115
607473,2.425,-0.135
607474,2.4277777777777776,-0.215
607475,2.4305555555555554,-0.385
607476,2.433333333333333,-0.635
607477,2.436111111111111,-0.94
607478,2.438888888888889,-1.285
607479,2.441666666666667,-1.605
607480,2.4444444444444446,-1.87
607481,2.4472222222222224,-2.08
607482,2.45,-2.25
607483,2.452777777777778,-2.365
607484,2.4555555555555557,-2.43
607485,2.4583333333333335,-2.44
607486,2.4611111111111112,-2.435
607487,2.463888888888889,-2.45
607488,2.466666666666667,-2.43
607489,2.4694444444444446,-2.405
607490,2.4722222222222223,-2.345
607491,2.475,-2.28
607492,2.477777777777778,-2.21
607493,2.4805555555555556,-2.12
607494,2.4833333333333334,-2.055
607495,2.486111111111111,-1.97
607496,2.488888888888889,-1.86
607497,2.4916666666666667,-1.75
607498,2.4944444444444445,-1.62
607499,2.4972222222222222,-1.49
607500,2.5,-1.345
607501,2.5027777777777778,-1.255
607502,2.5055555555555555,-1.17
607503,2.5083333333333333,-1.095
607504,2.511111111111111,-1.03
607505,2.513888888888889,-0.955
607506,2.5166666666666666,-0.89
607507,2.5194444444444444,-0.825
607508,2.522222222222222,-0.76
607509,2.525,-0.7
607510,2.5277777777777777,-0.62
607511,2.5305555555555554,-0.555
607512,2.533333333333333,-0.525
607513,2.536111111111111,-0.505
607514,2.5388888888888888,-0.465
607515,2.5416666666666665,-0.375
607516,2.5444444444444443,-0.26
607517,2.547222222222222,-0.15
607518,2.55,-0.07
607519,2.5527777777777776,-0.03
607520,2.5555555555555554,0.03
607521,2.558333333333333,0.07
607522,2.561111111111111,0.13
607523,2.563888888888889,0.165
607524,2.566666666666667,0.155
607525,2.5694444444444446,0.165
607526,2.5722222222222224,0.185
607527,2.575,0.195
607528,2.577777777777778,0.2
607529,2.5805555555555557,0.19
607530,2.5833333333333335,0.195
607531,2.5861111111111112,0.215
607532,2.588888888888889,0.245
607533,2.591666666666667,0.275
607534,2.5944444444444446,0.285
607535,2.5972222222222223,0.285
607536,2.6,0.3
607537,2.602777777777778,0.31
607538,2.6055555555555556,0.34
607539,2.6083333333333334,0.355
607540,2.611111111111111,0.365
607541,2.613888888888889,0.375
607542,2.6166666666666667,0.385
607543,2.6194444444444445,0.395
607544,2.6222222222222222,0.4
607545,2.625,0.4
607546,2.6277777777777778,0.42
607547,2.6305555555555555,0.435
607548,2.6333333333333333,0.44
607549,2.636111111111111,0.43
607550,2.638888888888889,0.43
607551,2.6416666666666666,0.465
607552,2.6444444444444444,0.5
607553,2.647222222222222,0.525
607554,2.65,0.535
607555,2.6527777777777777,0.52
607556,2.6555555555555554,0.5
607557,2.658333333333333,0.5
607558,2.661111111111111,0.5
607559,2.6638888888888888,0.5
607560,2.6666666666666665,0.505
607561,2.6694444444444443,0.515
607562,2.672222222222222,0.54
607563,2.675,0.555
607564,2.6777777777777776,0.57
607565,2.6805555555555554,0.56
607566,2.683333333333333,0.55
607567,2.686111111111111,0.54
607568,2.688888888888889,0.56
607569,2.691666666666667,0.575
607570,2.6944444444444446,0.595
607571,2.6972222222222224,0.6
607572,2.7,0.605
607573,2.702777777777778,0.595
607574,2.7055555555555557,0.615
607575,2.7083333333333335,0.62
607576,2.7111111111111112,0.625
607577,2.713888888888889,0.625
607578,2.716666666666667,0.6
607579,2.7194444444444446,0.58
607580,2.7222222222222223,0.6
607581,2.725,0.59
607582,2.727777777777778,0.575
607583,2.7305555555555556,0.565
607584,2.7333333333333334,0.545
607585,2.736111111111111,0.53
607586,2.738888888888889,0.52
607587,2.7416666666666667,0.51
607588,2.7444444444444445,0.515
607589,2.7472222222222222,0.525
607590,2.75,0.495
607591,2.7527777777777778,0.46
607592,2.7555555555555555,0.445
607593,2.7583333333333333,0.41
607594,2.761111111111111,0.39
607595,2.763888888888889,0.36
607596,2.7666666666666666,0.335
607597,2.7694444444444444,0.315
607598,2.772222222222222,0.315
607599,2.775,0.305
607600,2.7777777777777777,0.295
607601,2.7805555555555554,0.25
607602,2.783333333333333,0.195
607603,2.786111111111111,0.16
607604,2.7888888888888888,0.12
607605,2.7916666666666665,0.12
607606,2.7944444444444443,0.105
607607,2.797222222222222,0.085
607608,2.8,0.045
607609,2.8027777777777776,0.0
607610,2.8055555555555554,-0.03
607611,2.808333333333333,-0.06
607612,2.811111111111111,-0.08
607613,2.813888888888889,-0.12
607614,2.816666666666667,-0.165
607615,2.8194444444444446,-0.2
607616,2.8222222222222224,-0.235
607617,2.825,-0.245
607618,2.827777777777778,-0.25
607619,2.8305555555555557,-0.255
607620,2.8333333333333335,-0.285
607621,2.8361111111111112,-0.305
607622,2.838888888888889,-0.33
607623,2.841666666666667,-0.34
607624,2.8444444444444446,-0.35
607625,2.8472222222222223,-0.345
607626,2.85,-0.345
607627,2.852777777777778,-0.36
607628,2.8555555555555556,-0.35
607629,2.8583333333333334,-0.35
607630,2.861111111111111,-0.36
607631,2.863888888888889,-0.39
607632,2.8666666666666667,-0.395
607633,2.8694444444444445,-0.41
607634,2.8722222222222222,-0.405
607635,2.875,-0.4
607636,2.8777777777777778,-0.39
607637,2.8805555555555555,-0.38
607638,2.8833333333333333,-0.38
607639,2.886111111111111,-0.385
607640,2.888888888888889,-0.39
607641,2.8916666666666666,-0.38
607642,2.8944444444444444,-0.38
607643,2.897222222222222,-0.38
607644,2.9,-0.385
607645,2.9027777777777777,-0.405
607646,2.9055555555555554,-0.4
607647,2.908333333333333,-0.405
607648,2.911111111111111,-0.4
607649,2.9138888888888888,-0.385
607650,2.9166666666666665,-0.38
607651,2.9194444444444443,-0.4
607652,2.922222222222222,-0.39
607653,2.925,-0.395
607654,2.9277777777777776,-0.375
607655,2.9305555555555554,-0.38
607656,2.933333333333333,-0.39
607657,2.936111111111111,-0.415
607658,2.938888888888889,-0.42
607659,2.941666666666667,-0.405
607660,2.9444444444444446,-0.385
607661,2.9472222222222224,-0.355
607662,2.95,-0.36
607663,2.952777777777778,-0.37
607664,2.9555555555555557,-0.385
607665,2.9583333333333335,-0.375
607666,2.9611111111111112,-0.36
607667,2.963888888888889,-0.36
607668,2.966666666666667,-0.365
607669,2.9694444444444446,-0.37
607670,2.9722222222222223,-0.365
607671,2.975,-0.355
607672,2.977777777777778,-0.365
607673,2.9805555555555556,-0.38
607674,2.9833333333333334,-0.38
607675,2.986111111111111,-0.385
607676,2.988888888888889,-0.37
607677,2.9916666666666667,-0.355
607678,2.9944444444444445,-0.355
607679,2.9972222222222222,-0.355
607680,3.0,-0.36
607681,3.0027777777777778,-0.37
607682,3.0055555555555555,-0.37
607683,3.0083333333333333,-0.355
607684,3.011111111111111,-0.365
607685,3.013888888888889,-0.365
607686,3.0166666666666666,-0.35
607687,3.0194444444444444,-0.34
607688,3.022222222222222,-0.32
607689,3.025,-0.315
607690,3.0277777777777777,-0.325
607691,3.0305555555555554,-0.335
607692,3.033333333333333,-0.34
607693,3.036111111111111,-0.355
607694,3.0388888888888888,-0.35
607695,3.0416666666666665,-0.345
607696,3.0444444444444443,-0.33
607697,3.047222222222222,-0.325
607698,3.05,-0.345
607699,3.0527777777777776,-0.35
607700,3.0555555555555554,-0.35
607701,3.058333333333333,-0.34
607702,3.061111111111111,-0.325
607703,3.063888888888889,-0.33
607704,3.066666666666667,-0.34
607705,3.0694444444444446,-0.34
607706,3.0722222222222224,-0.335
607707,3.075,-0.32
607708,3.077777777777778,-0.305
607709,3.0805555555555557,-0.31
607710,3.0833333333333335,-0.325
607711,3.0861111111111112,-0.335
607712,3.088888888888889,-0.33
607713,3.091666666666667,-0.315
607714,3.0944444444444446,-0.305
607715,3.0972222222222223,-0.305
607716,3.1,-0.31
607717,3.102777777777778,-0.33
607718,3.1055555555555556,-0.325
607719,3.1083333333333334,-0.32
607720,3.111111111111111,-0.295
607721,3.113888888888889,-0.29
607722,3.1166666666666667,-0.295
607723,3.1194444444444445,-0.31
607724,3.1222222222222222,-0.3
607725,3.125,-0.3
607726,3.1277777777777778,-0.295
607727,3.1305555555555555,-0.29
607728,3.1333333333333333,-0.3
607729,3.136111111111111,-0.31
607730,3.138888888888889,-0.305
607731,3.1416666666666666,-0.31
607732,3.1444444444444444,-0.3
607733,3.147222222222222,-0.305
607734,3.15,-0.295
607735,3.1527777777777777,-0.305
607736,3.1555555555555554,-0.305
607737,3.158333333333333,-0.295
607738,3.161111111111111,-0.285
607739,3.1638888888888888,-0.29
607740,3.1666666666666665,-0.295
607741,3.1694444444444443,-0.305
607742,3.172222222222222,-0.29
607743,3.175,-0.28
607744,3.1777777777777776,-0.27
607745,3.1805555555555554,-0.275
607746,3.183333333333333,-0.285
607747,3.186111111111111,-0.3
607748,3.188888888888889,-0.295
607749,3.191666666666667,-0.29
607750,3.1944444444444446,-0.275
607751,3.1972222222222224,-0.275
607752,3.2,-0.28
607753,3.202777777777778,-0.29
607754,3.2055555555555557,-0.285
607755,3.2083333333333335,-0.265
607756,3.2111111111111112,-0.265
607757,3.213888888888889,-0.27
607758,3.216666666666667,-0.28
607759,3.2194444444444446,-0.28
607760,3.2222222222222223,-0.28
607761,3.225,-0.275
607762,3.227777777777778,-0.28
607763,3.2305555555555556,-0.285
607764,3.2333333333333334,-0.275
607765,3.236111111111111,-0.275
607766,3.238888888888889,-0.28
607767,3.2416666666666667,-0.275
607768,3.2444444444444445,-0.27
607769,3.2472222222222222,-0.28
607770,3.25,-0.285
607771,3.2527777777777778,-0.27
607772,3.2555555555555555,-0.275
607773,3.2583333333333333,-0.27
607774,3.261111111111111,-0.26
607775,3.263888888888889,-0.255
607776,3.2666666666666666,-0.265
607777,3.2694444444444444,-0.27
607778,3.272222222222222,-0.255
607779,3.275,-0.255
607780,3.2777777777777777,-0.25
607781,3.2805555555555554,-0.245
607782,3.283333333333333,-0.24
607783,3.286111111111111,-0.26
607784,3.2888888888888888,-0.26
607785,3.2916666666666665,-0.23
607786,3.2944444444444443,-0.22
607787,3.297222222222222,-0.215
607788,3.3,-0.22
607789,3.3027777777777776,-0.23
607790,3.3055555555555554,-0.23
607791,3.308333333333333,-0.22
607792,3.311111111111111,-0.21
607793,3.313888888888889,-0.2
607794,3.316666666666667,-0.205
607795,3.3194444444444446,-0.21
607796,3.3222222222222224,-0.2
607797,3.325,-0.185
607798,3.327777777777778,-0.18
607799,3.3305555555555557,-0.185
607800,3.3333333333333335,-0.205
607801,3.3361111111111112,-0.215
607802,3.338888888888889,-0.205
607803,3.341666666666667,-0.185
607804,3.3444444444444446,-0.165
607805,3.3472222222222223,-0.155
607806,3.35,-0.165
607807,3.352777777777778,-0.18
607808,3.3555555555555556,-0.165
607809,3.3583333333333334,-0.175
607810,3.361111111111111,-0.18
607811,3.363888888888889,-0.21
607812,3.3666666666666667,-0.215
607813,3.3694444444444445,-0.235
607814,3.3722222222222222,-0.23
607815,3.375,-0.225
607816,3.3777777777777778,-0.22
607817,3.3805555555555555,-0.225
607818,3.3833333333333333,-0.23
607819,3.386111111111111,-0.24
607820,3.388888888888889,-0.24
607821,3.3916666666666666,-0.245
607822,3.3944444444444444,-0.24
607823,3.397222222222222,-0.255
607824,3.4,-0.265
607825,3.4027777777777777,-0.265
607826,3.4055555555555554,-0.26
607827,3.408333333333333,-0.25
607828,3.411111111111111,-0.24
607829,3.4138888888888888,-0.24
607830,3.4166666666666665,-0.235
607831,3.4194444444444443,-0.235
607832,3.422222222222222,-0.225
607833,3.425,-0.21
607834,3.4277777777777776,-0.21
607835,3.4305555555555554,-0.22
607836,3.433333333333333,-0.245
607837,3.436111111111111,-0.25
607838,3.438888888888889,-0.24
607839,3.441666666666667,-0.25
607840,3.4444444444444446,-0.26
607841,3.4472222222222224,-0.26
607842,3.45,-0.26
607843,3.452777777777778,-0.26
607844,3.4555555555555557,-0.265
607845,3.4583333333333335,-0.245
607846,3.4611111111111112,-0.24
607847,3.463888888888889,-0.23
607848,3.466666666666667,-0.245
607849,3.4694444444444446,-0.245
607850,3.4722222222222223,-0.25
607851,3.475,-0.235
607852,3.477777777777778,-0.225
607853,3.4805555555555556,-0.225
607854,3.4833333333333334,-0.24
607855,3.486111111111111,-0.26
607856,3.488888888888889,-0.26
607857,3.4916666666666667,-0.265
607858,3.4944444444444445,-0.285
607859,3.4972222222222222,-0.29
607860,3.5,-0.275
607861,3.5027777777777778,-0.25
607862,3.5055555555555555,-0.185
607863,3.5083333333333333,-0.09
607864,3.511111111111111,-0.005
607865,3.513888888888889,0.085
607866,3.5166666666666666,0.175
607867,3.5194444444444444,0.265
607868,3.522222222222222,0.35
607869,3.525,0.45
607870,3.5277777777777777,0.555
607871,3.5305555555555554,0.66
607872,3.533333333333333,0.735
607873,3.536111111111111,0.78
607874,3.5388888888888888,0.795
607875,3.5416666666666665,0.745
607876,3.5444444444444443,0.665
607877,3.547222222222222,0.57
607878,3.55,0.45
607879,3.5527777777777776,0.295
607880,3.5555555555555554,0.07
607881,3.558333333333333,-0.165
607882,3.561111111111111,-0.355
607883,3.563888888888889,-0.48
607884,3.566666666666667,-0.56
607885,3.5694444444444446,-0.595
607886,3.5722222222222224,-0.575
607887,3.575,-0.52
607888,3.577777777777778,-0.465
607889,3.5805555555555557,-0.43
607890,3.5833333333333335,-0.415
607891,3.5861111111111112,-0.415
607892,3.588888888888889,-0.39
607893,3.591666666666667,-0.39
607894,3.5944444444444446,-0.37
607895,3.5972222222222223,-0.375
607896,3.6,-0.385
607897,3.602777777777778,-0.415
607898,3.6055555555555556,-0.42
607899,3.6083333333333334,-0.415
607900,3.611111111111111,-0.41
607901,3.613888888888889,-0.41
607902,3.6166666666666667,-0.405
607903,3.6194444444444445,-0.41
607904,3.6222222222222222,-0.38
607905,3.625,-0.345
607906,3.6277777777777778,-0.33
607907,3.6305555555555555,-0.32
607908,3.6333333333333333,-0.335
607909,3.636111111111111,-0.33
607910,3.638888888888889,-0.335
607911,3.6416666666666666,-0.32
607912,3.6444444444444444,-0.31
607913,3.647222222222222,-0.315
607914,3.65,-0.315
607915,3.6527777777777777,-0.335
607916,3.6555555555555554,-0.34
607917,3.658333333333333,-0.32
607918,3.661111111111111,-0.31
607919,3.6638888888888888,-0.315
607920,3.6666666666666665,-0.32
607921,3.6694444444444443,-0.33
607922,3.672222222222222,-0.32
607923,3.675,-0.325
607924,3.6777777777777776,-0.31
607925,3.6805555555555554,-0.31
607926,3.683333333333333,-0.315
607927,3.686111111111111,-0.33
607928,3.688888888888889,-0.31
607929,3.691666666666667,-0.3
607930,3.6944444444444446,-0.29
607931,3.6972222222222224,-0.31
607932,3.7,-0.31
607933,3.702777777777778,-0.31
607934,3.7055555555555557,-0.305
607935,3.7083333333333335,-0.295
607936,3.7111111111111112,-0.28
607937,3.713888888888889,-0.275
607938,3.716666666666667,-0.28
607939,3.7194444444444446,-0.275
607940,3.7222222222222223,-0.275
607941,3.725,-0.27
607942,3.727777777777778,-0.265
607943,3.7305555555555556,-0.27
607944,3.7333333333333334,-0.26
607945,3.736111111111111,-0.27
607946,3.738888888888889,-0.27
607947,3.7416666666666667,-0.27
607948,3.7444444444444445,-0.265
607949,3.7472222222222222,-0.255
607950,3.75,-0.26
607951,3.7527777777777778,-0.28
607952,3.7555555555555555,-0.28
607953,3.7583333333333333,-0.275
607954,3.761111111111111,-0.265
607955,3.763888888888889,-0.265
607956,3.7666666666666666,-0.26
607957,3.7694444444444444,-0.275
607958,3.772222222222222,-0.265
607959,3.775,-0.26
607960,3.7777777777777777,-0.26
607961,3.7805555555555554,-0.255
607962,3.783333333333333,-0.265
607963,3.786111111111111,-0.265
607964,3.7888888888888888,-0.26
607965,3.7916666666666665,-0.25
607966,3.7944444444444443,-0.25
607967,3.797222222222222,-0.255
607968,3.8,-0.255
607969,3.8027777777777776,-0.265
607970,3.8055555555555554,-0.255
607971,3.808333333333333,-0.245
607972,3.811111111111111,-0.225
607973,3.813888888888889,-0.23
607974,3.816666666666667,-0.23
607975,3.8194444444444446,-0.235
607976,3.8222222222222224,-0.245
607977,3.825,-0.23
607978,3.827777777777778,-0.215
607979,3.8305555555555557,-0.225
607980,3.8333333333333335,-0.22
607981,3.8361111111111112,-0.24
607982,3.838888888888889,-0.23
607983,3.841666666666667,-0.21
607984,3.8444444444444446,-0.19
607985,3.8472222222222223,-0.175
607986,3.85,-0.19
607987,3.852777777777778,-0.195
607988,3.8555555555555556,-0.19
607989,3.8583333333333334,-0.185
607990,3.861111111111111,-0.17
607991,3.863888888888889,-0.17
607992,3.8666666666666667,-0.175
607993,3.8694444444444445,-0.175
607994,3.8722222222222222,-0.175
607995,3.875,-0.16
607996,3.8777777777777778,-0.15
607997,3.8805555555555555,-0.15
607998,3.8833333333333333,-0.145
607999,3.886111111111111,-0.15
608000,3.888888888888889,-0.13
608001,3.8916666666666666,-0.105
608002,3.8944444444444444,-0.105
608003,3.897222222222222,-0.11
608004,3.9,-0.12
608005,3.9027777777777777,-0.125
608006,3.9055555555555554,-0.11
608007,3.908333333333333,-0.1
608008,3.911111111111111,-0.1
608009,3.9138888888888888,-0.105
608010,3.9166666666666665,-0.115
608011,3.9194444444444443,-0.12
608012,3.922222222222222,-0.115
608013,3.925,-0.12
608014,3.9277777777777776,-0.12
608015,3.9305555555555554,-0.125
608016,3.933333333333333,-0.13
608017,3.936111111111111,-0.14
608018,3.938888888888889,-0.13
608019,3.941666666666667,-0.14
608020,3.9444444444444446,-0.135
608021,3.9472222222222224,-0.14
608022,3.95,-0.145
608023,3.952777777777778,-0.155
608024,3.9555555555555557,-0.17
608025,3.9583333333333335,-0.16
608026,3.9611111111111112,-0.155
608027,3.963888888888889,-0.17
608028,3.966666666666667,-0.18
608029,3.9694444444444446,-0.185
608030,3.9722222222222223,-0.18
608031,3.975,-0.17
608032,3.977777777777778,-0.17
608033,3.9805555555555556,-0.175
608034,3.9833333333333334,-0.185
608035,3.986111111111111,-0.2
608036,3.988888888888889,-0.19
608037,3.9916666666666667,-0.185
608038,3.9944444444444445,-0.185
608039,3.9972222222222222,-0.185
608040,4.0,-0.19
608041,4.002777777777778,-0.195
608042,4.0055555555555555,-0.2
608043,4.008333333333334,-0.185
608044,4.011111111111111,-0.185
608045,4.013888888888889,-0.185
608046,4.016666666666667,-0.195
608047,4.019444444444445,-0.195
608048,4.022222222222222,-0.195
608049,4.025,-0.19
608050,4.027777777777778,-0.185
608051,4.030555555555556,-0.19
608052,4.033333333333333,-0.195
608053,4.036111111111111,-0.21
608054,4.038888888888889,-0.21
608055,4.041666666666667,-0.2
608056,4.044444444444444,-0.185
608057,4.0472222222222225,-0.19
608058,4.05,-0.22
608059,4.052777777777778,-0.22
608060,4.055555555555555,-0.21
608061,4.058333333333334,-0.215
608062,4.061111111111111,-0.21
608063,4.063888888888889,-0.205
608064,4.066666666666666,-0.205
608065,4.069444444444445,-0.215
608066,4.072222222222222,-0.205
608067,4.075,-0.2
608068,4.0777777777777775,-0.2
608069,4.080555555555556,-0.19
608070,4.083333333333333,-0.21
608071,4.086111111111111,-0.21
608072,4.088888888888889,-0.205
608073,4.091666666666667,-0.195
608074,4.094444444444444,-0.19
608075,4.097222222222222,-0.2
608076,4.1,-0.2
608077,4.102777777777778,-0.215
608078,4.105555555555555,-0.2
608079,4.108333333333333,-0.195
608080,4.111111111111111,-0.185
608081,4.113888888888889,-0.18
608082,4.116666666666666,-0.19
608083,4.1194444444444445,-0.195
608084,4.122222222222222,-0.19
608085,4.125,-0.175
608086,4.127777777777778,-0.165
608087,4.1305555555555555,-0.165
608088,4.133333333333334,-0.17
608089,4.136111111111111,-0.18
608090,4.138888888888889,-0.175
608091,4.141666666666667,-0.16
608092,4.144444444444445,-0.16
608093,4.147222222222222,-0.155
608094,4.15,-0.15
608095,4.152777777777778,-0.15
608096,4.155555555555556,-0.145
608097,4.158333333333333,-0.135
608098,4.161111111111111,-0.13
608099,4.163888888888889,-0.135
608100,4.166666666666667,-0.135
608101,4.169444444444444,-0.13
608102,4.1722222222222225,-0.11
608103,4.175,-0.11
608104,4.177777777777778,-0.11
608105,4.180555555555555,-0.125
608106,4.183333333333334,-0.135
608107,4.186111111111111,-0.145
608108,4.188888888888889,-0.135
608109,4.191666666666666,-0.15
608110,4.194444444444445,-0.16
608111,4.197222222222222,-0.165
608112,4.2,-0.17
608113,4.2027777777777775,-0.17
608114,4.205555555555556,-0.17
608115,4.208333333333333,-0.17
608116,4.211111111111111,-0.18
608117,4.213888888888889,-0.175
608118,4.216666666666667,-0.185
608119,4.219444444444444,-0.19
608120,4.222222222222222,-0.185
608121,4.225,-0.19
608122,4.227777777777778,-0.18
608123,4.230555555555555,-0.185
608124,4.233333333333333,-0.175
608125,4.236111111111111,-0.175
608126,4.238888888888889,-0.18
608127,4.241666666666666,-0.16
608128,4.2444444444444445,-0.155
608129,4.247222222222222,-0.155
608130,4.25,-0.155
608131,4.252777777777778,-0.165
608132,4.2555555555555555,-0.165
608133,4.258333333333334,-0.165
608134,4.261111111111111,-0.165
608135,4.263888888888889,-0.18
608136,4.266666666666667,-0.21
608137,4.269444444444445,-0.21
608138,4.272222222222222,-0.2
608139,4.275,-0.175
608140,4.277777777777778,-0.175
608141,4.280555555555556,-0.175
608142,4.283333333333333,-0.2
608143,4.286111111111111,-0.215
608144,4.288888888888889,-0.205
608145,4.291666666666667,-0.205
608146,4.294444444444444,-0.2
608147,4.2972222222222225,-0.2
608148,4.3,-0.19
608149,4.302777777777778,-0.185
608150,4.305555555555555,-0.2
608151,4.308333333333334,-0.175
608152,4.311111111111111,-0.175
608153,4.313888888888889,-0.175
608154,4.316666666666666,-0.185
608155,4.319444444444445,-0.2
608156,4.322222222222222,-0.185
608157,4.325,-0.185
608158,4.3277777777777775,-0.185
608159,4.330555555555556,-0.21
608160,4.333333333333333,-0.24
608161,4.336111111111111,-0.255
608162,4.338888888888889,-0.23
608163,4.341666666666667,-0.185
608164,4.344444444444444,-0.12
608165,4.347222222222222,-0.05
608166,4.35,0.005
608167,4.352777777777778,0.075
608168,4.355555555555555,0.165
608169,4.358333333333333,0.255
608170,4.361111111111111,0.35
608171,4.363888888888889,0.42
608172,4.366666666666666,0.5
608173,4.3694444444444445,0.575
608174,4.372222222222222,0.665
608175,4.375,0.745
608176,4.377777777777778,0.785
608177,4.3805555555555555,0.78
608178,4.383333333333334,0.72
608179,4.386111111111111,0.63
608180,4.388888888888889,0.545
608181,4.391666666666667,0.445
608182,4.394444444444445,0.295
608183,4.397222222222222,0.075
608184,4.4,-0.135
608185,4.402777777777778,-0.285
608186,4.405555555555556,-0.375
608187,4.408333333333333,-0.45
608188,4.411111111111111,-0.47
608189,4.413888888888889,-0.47
608190,4.416666666666667,-0.435
608191,4.419444444444444,-0.38
608192,4.4222222222222225,-0.315
608193,4.425,-0.295
608194,4.427777777777778,-0.265
608195,4.430555555555555,-0.245
608196,4.433333333333334,-0.245
608197,4.436111111111111,-0.265
608198,4.438888888888889,-0.27
608199,4.441666666666666,-0.28
608200,4.444444444444445,-0.29
608201,4.447222222222222,-0.315
608202,4.45,-0.32
608203,4.4527777777777775,-0.33
608204,4.455555555555556,-0.325
608205,4.458333333333333,-0.315
608206,4.461111111111111,-0.3
608207,4.463888888888889,-0.31
608208,4.466666666666667,-0.295
608209,4.469444444444444,-0.29
608210,4.472222222222222,-0.29
608211,4.475,-0.27
608212,4.477777777777778,-0.265
608213,4.480555555555555,-0.265
608214,4.483333333333333,-0.26
608215,4.486111111111111,-0.27
608216,4.488888888888889,-0.26
608217,4.491666666666666,-0.255
608218,4.4944444444444445,-0.26
608219,4.497222222222222,-0.255
608220,4.5,-0.26
608221,4.502777777777778,-0.265
608222,4.5055555555555555,-0.255
608223,4.508333333333334,-0.24
608224,4.511111111111111,-0.24
608225,4.513888888888889,-0.25
608226,4.516666666666667,-0.255
608227,4.519444444444445,-0.275
608228,4.522222222222222,-0.26
608229,4.525,-0.255
608230,4.527777777777778,-0.245
608231,4.530555555555556,-0.255
608232,4.533333333333333,-0.255
608233,4.536111111111111,-0.265
608234,4.538888888888889,-0.25
608235,4.541666666666667,-0.23
608236,4.544444444444444,-0.22
608237,4.5472222222222225,-0.23
608238,4.55,-0.23
608239,4.552777777777778,-0.23
608240,4.555555555555555,-0.23
608241,4.558333333333334,-0.23
608242,4.561111111111111,-0.21
608243,4.563888888888889,-0.21
608244,4.566666666666666,-0.215
608245,4.569444444444445,-0.215
608246,4.572222222222222,-0.205
608247,4.575,-0.21
608248,4.5777777777777775,-0.19
608249,4.580555555555556,-0.175
608250,4.583333333333333,-0.175
608251,4.586111111111111,-0.185
608252,4.588888888888889,-0.18
608253,4.591666666666667,-0.165
608254,4.594444444444444,-0.165
608255,4.597222222222222,-0.165
608256,4.6,-0.17
608257,4.602777777777778,-0.175
608258,4.605555555555555,-0.165
608259,4.608333333333333,-0.155
608260,4.611111111111111,-0.14
608261,4.613888888888889,-0.14
608262,4.616666666666666,-0.14
608263,4.6194444444444445,-0.135
608264,4.622222222222222,-0.125
608265,4.625,-0.115
608266,4.627777777777778,-0.115
608267,4.6305555555555555,-0.105
608268,4.633333333333334,-0.105
608269,4.636111111111111,-0.11
608270,4.638888888888889,-0.095
608271,4.641666666666667,-0.085
608272,4.644444444444445,-0.08
608273,4.647222222222222,-0.08
608274,4.65,-0.09
608275,4.652777777777778,-0.09
608276,4.655555555555556,-0.08
608277,4.658333333333333,-0.065
608278,4.661111111111111,-0.065
608279,4.663888888888889,-0.055
608280,4.666666666666667,-0.06
608281,4.669444444444444,-0.07
608282,4.6722222222222225,-0.06
608283,4.675,-0.04
608284,4.677777777777778,-0.02
608285,4.680555555555555,-0.01
608286,4.683333333333334,-0.005
608287,4.686111111111111,-0.02
608288,4.688888888888889,-0.005
608289,4.691666666666666,0.005
608290,4.694444444444445,0.0
608291,4.697222222222222,-0.01
608292,4.7,0.0
608293,4.7027777777777775,-0.015
608294,4.705555555555556,0.0
608295,4.708333333333333,0.0
608296,4.711111111111111,0.01
608297,4.713888888888889,-0.005
608298,4.716666666666667,-0.02
608299,4.719444444444444,-0.04
608300,4.722222222222222,-0.035
608301,4.725,-0.025
608302,4.727777777777778,-0.03
608303,4.730555555555555,-0.04
608304,4.733333333333333,-0.03
608305,4.736111111111111,-0.04
608306,4.738888888888889,-0.025
608307,4.741666666666666,-0.025
608308,4.7444444444444445,-0.03
608309,4.747222222222222,-0.035
608310,4.75,-0.045
608311,4.752777777777778,-0.055
608312,4.7555555555555555,-0.065
608313,4.758333333333334,-0.055
608314,4.761111111111111,-0.06
608315,4.763888888888889,-0.075
608316,4.766666666666667,-0.08
608317,4.769444444444445,-0.08
608318,4.772222222222222,-0.07
608319,4.775,-0.09
608320,4.777777777777778,-0.085
608321,4.780555555555556,-0.095
608322,4.783333333333333,-0.11
608323,4.786111111111111,-0.115
608324,4.788888888888889,-0.105
608325,4.791666666666667,-0.11
608326,4.794444444444444,-0.11
608327,4.7972222222222225,-0.11
608328,4.8,-0.13
608329,4.802777777777778,-0.135
608330,4.805555555555555,-0.135
608331,4.808333333333334,-0.135
608332,4.811111111111111,-0.14
608333,4.813888888888889,-0.145
608334,4.816666666666666,-0.145
608335,4.819444444444445,-0.145
608336,4.822222222222222,-0.14
608337,4.825,-0.14
608338,4.8277777777777775,-0.145
608339,4.830555555555556,-0.14
608340,4.833333333333333,-0.125
608341,4.836111111111111,-0.145
608342,4.838888888888889,-0.14
608343,4.841666666666667,-0.145
608344,4.844444444444444,-0.145
608345,4.847222222222222,-0.14
608346,4.85,-0.14
608347,4.852777777777778,-0.135
608348,4.855555555555555,-0.125
608349,4.858333333333333,-0.13
608350,4.861111111111111,-0.135
608351,4.863888888888889,-0.155
608352,4.866666666666666,-0.17
608353,4.8694444444444445,-0.185
608354,4.872222222222222,-0.18
608355,4.875,-0.175
608356,4.877777777777778,-0.165
608357,4.8805555555555555,-0.18
608358,4.883333333333334,-0.18
608359,4.886111111111111,-0.19
608360,4.888888888888889,-0.185
608361,4.891666666666667,-0.18
608362,4.894444444444445,-0.175
608363,4.897222222222222,-0.175
608364,4.9,-0.19
608365,4.902777777777778,-0.195
608366,4.905555555555556,-0.19
608367,4.908333333333333,-0.17
608368,4.911111111111111,-0.165
608369,4.913888888888889,-0.17
608370,4.916666666666667,-0.195
608371,4.919444444444444,-0.19
608372,4.9222222222222225,-0.175
608373,4.925,-0.17
608374,4.927777777777778,-0.17
608375,4.930555555555555,-0.16
608376,4.933333333333334,-0.16
608377,4.936111111111111,-0.165
608378,4.938888888888889,-0.14
608379,4.941666666666666,-0.14
608380,4.944444444444445,-0.135
608381,4.947222222222222,-0.15
608382,4.95,-0.155
608383,4.9527777777777775,-0.16
608384,4.955555555555556,-0.155
608385,4.958333333333333,-0.15
608386,4.961111111111111,-0.155
608387,4.963888888888889,-0.165
608388,4.966666666666667,-0.165
608389,4.969444444444444,-0.155
608390,4.972222222222222,-0.125
608391,4.975,-0.115
608392,4.977777777777778,-0.115
608393,4.980555555555555,-0.115
608394,4.983333333333333,-0.11
608395,4.986111111111111,-0.12
608396,4.988888888888889,-0.115
608397,4.991666666666666,-0.115
608398,4.9944444444444445,-0.105
608399,4.997222222222222,-0.09
608400,5.0,-0.095
608401,5.002777777777778,-0.095
608402,5.0055555555555555,-0.095
608403,5.008333333333334,-0.105
608404,5.011111111111111,-0.115
608405,5.013888888888889,-0.14
608406,5.016666666666667,-0.15
608407,5.019444444444445,-0.175
608408,5.022222222222222,-0.16
608409,5.025,-0.16
608410,5.027777777777778,-0.165
608411,5.030555555555556,-0.16
608412,5.033333333333333,-0.16
608413,5.036111111111111,-0.16
608414,5.038888888888889,-0.15
608415,5.041666666666667,-0.14
608416,5.044444444444444,-0.14
608417,5.0472222222222225,-0.16
608418,5.05,-0.17
608419,5.052777777777778,-0.19
608420,5.055555555555555,-0.185
608421,5.058333333333334,-0.175
608422,5.061111111111111,-0.165
608423,5.063888888888889,-0.165
608424,5.066666666666666,-0.165
608425,5.069444444444445,-0.15
608426,5.072222222222222,-0.13
608427,5.075,-0.105
608428,5.0777777777777775,-0.115
608429,5.080555555555556,-0.12
608430,5.083333333333333,-0.15
608431,5.086111111111111,-0.16
608432,5.088888888888889,-0.16
608433,5.091666666666667,-0.17
608434,5.094444444444444,-0.19
608435,5.097222222222222,-0.19
608436,5.1,-0.19
608437,5.102777777777778,-0.19
608438,5.105555555555555,-0.17
608439,5.108333333333333,-0.165
608440,5.111111111111111,-0.17
608441,5.113888888888889,-0.175
608442,5.116666666666666,-0.165
608443,5.1194444444444445,-0.155
608444,5.122222222222222,-0.145
608445,5.125,-0.145
608446,5.127777777777778,-0.15
608447,5.1305555555555555,-0.155
608448,5.133333333333334,-0.165
608449,5.136111111111111,-0.17
608450,5.138888888888889,-0.16
608451,5.141666666666667,-0.145
608452,5.144444444444445,-0.15
608453,5.147222222222222,-0.16
608454,5.15,-0.165
608455,5.152777777777778,-0.18
608456,5.155555555555556,-0.17
608457,5.158333333333333,-0.175
608458,5.161111111111111,-0.19
608459,5.163888888888889,-0.19
608460,5.166666666666667,-0.175
608461,5.169444444444444,-0.13
608462,5.1722222222222225,-0.05
608463,5.175,0.045
608464,5.177777777777778,0.12
608465,5.180555555555555,0.205
608466,5.183333333333334,0.305
608467,5.186111111111111,0.4
608468,5.188888888888889,0.485
608469,5.191666666666666,0.555
608470,5.194444444444445,0.63
608471,5.197222222222222,0.71
608472,5.2,0.77
608473,5.2027777777777775,0.77
608474,5.205555555555556,0.71
608475,5.208333333333333,0.605
608476,5.211111111111111,0.505
608477,5.213888888888889,0.375
608478,5.216666666666667,0.17
608479,5.219444444444444,-0.09
608480,5.222222222222222,-0.3
608481,5.225,-0.44
608482,5.227777777777778,-0.515
608483,5.230555555555555,-0.545
608484,5.233333333333333,-0.515
608485,5.236111111111111,-0.46
608486,5.238888888888889,-0.405
608487,5.241666666666666,-0.355
608488,5.2444444444444445,-0.32
608489,5.247222222222222,-0.3
608490,5.25,-0.29
608491,5.252777777777778,-0.285
608492,5.2555555555555555,-0.28
608493,5.258333333333334,-0.3
608494,5.261111111111111,-0.315
608495,5.263888888888889,-0.32
608496,5.266666666666667,-0.325
608497,5.269444444444445,-0.325
608498,5.272222222222222,-0.315
608499,5.275,-0.295
608500,5.277777777777778,-0.275
608501,5.280555555555556,-0.255
608502,5.283333333333333,-0.245
608503,5.286111111111111,-0.235
608504,5.288888888888889,-0.225
608505,5.291666666666667,-0.24
608506,5.294444444444444,-0.24
608507,5.2972222222222225,-0.245
608508,5.3,-0.25
608509,5.302777777777778,-0.25
608510,5.305555555555555,-0.22
608511,5.308333333333334,-0.205
608512,5.311111111111111,-0.21
608513,5.313888888888889,-0.205
608514,5.316666666666666,-0.22
608515,5.319444444444445,-0.23
608516,5.322222222222222,-0.225
608517,5.325,-0.215
608518,5.3277777777777775,-0.215
608519,5.330555555555556,-0.205
608520,5.333333333333333,-0.205
608521,5.336111111111111,-0.205
608522,5.338888888888889,-0.205
608523,5.341666666666667,-0.2
608524,5.344444444444444,-0.19
608525,5.347222222222222,-0.2
608526,5.35,-0.195
608527,5.352777777777778,-0.205
608528,5.355555555555555,-0.205
608529,5.358333333333333,-0.195
608530,5.361111111111111,-0.19
608531,5.363888888888889,-0.19
608532,5.366666666666666,-0.185
608533,5.3694444444444445,-0.185
608534,5.372222222222222,-0.185
608535,5.375,-0.165
608536,5.377777777777778,-0.18
608537,5.3805555555555555,-0.17
608538,5.383333333333334,-0.175
608539,5.386111111111111,-0.18
608540,5.388888888888889,-0.17
608541,5.391666666666667,-0.18
608542,5.394444444444445,-0.15
608543,5.397222222222222,-0.13
608544,5.4,-0.13
608545,5.402777777777778,-0.125
608546,5.405555555555556,-0.11
608547,5.408333333333333,-0.1
608548,5.411111111111111,-0.1
608549,5.413888888888889,-0.095
608550,5.416666666666667,-0.085
608551,5.419444444444444,-0.085
608552,5.4222222222222225,-0.075
608553,5.425,-0.06
608554,5.427777777777778,-0.07
608555,5.430555555555555,-0.075
608556,5.433333333333334,-0.085
608557,5.436111111111111,-0.09
608558,5.438888888888889,-0.065
608559,5.441666666666666,-0.045
608560,5.444444444444445,-0.035
608561,5.447222222222222,-0.04
608562,5.45,-0.04
608563,5.4527777777777775,-0.035
608564,5.455555555555556,-0.02
608565,5.458333333333333,-0.02
608566,5.461111111111111,-0.015
608567,5.463888888888889,-0.025
608568,5.466666666666667,-0.02
608569,5.469444444444444,-0.02
608570,5.472222222222222,-0.015
608571,5.475,-0.005
608572,5.477777777777778,-0.01
608573,5.480555555555555,-0.015
608574,5.483333333333333,-0.025
608575,5.486111111111111,-0.03
608576,5.488888888888889,-0.035
608577,5.491666666666666,-0.01
608578,5.4944444444444445,-0.01
608579,5.497222222222222,-0.005
608580,5.5,-0.01
608581,5.502777777777778,-0.005
608582,5.5055555555555555,0.005
608583,5.508333333333334,-0.025
608584,5.511111111111111,-0.06
608585,5.513888888888889,-0.085
608586,5.516666666666667,-0.115
608587,5.519444444444445,-0.12
608588,5.522222222222222,-0.11
608589,5.525,-0.1
608590,5.527777777777778,-0.11
608591,5.530555555555556,-0.11
608592,5.533333333333333,-0.135
608593,5.536111111111111,-0.135
608594,5.538888888888889,-0.13
608595,5.541666666666667,-0.13
608596,5.544444444444444,-0.135
608597,5.5472222222222225,-0.15
608598,5.55,-0.155
608599,5.552777777777778,-0.16
608600,5.555555555555555,-0.16
608601,5.558333333333334,-0.165
608602,5.561111111111111,-0.17
608603,5.563888888888889,-0.185
608604,5.566666666666666,-0.175
608605,5.569444444444445,-0.16
608606,5.572222222222222,-0.15
608607,5.575,-0.165
608608,5.5777777777777775,-0.165
608609,5.580555555555556,-0.155
608610,5.583333333333333,-0.16
608611,5.586111111111111,-0.145
608612,5.588888888888889,-0.14
608613,5.591666666666667,-0.145
608614,5.594444444444444,-0.17
608615,5.597222222222222,-0.195
608616,5.6,-0.215
608617,5.602777777777778,-0.22
608618,5.605555555555555,-0.21
608619,5.608333333333333,-0.195
608620,5.611111111111111,-0.185
608621,5.613888888888889,-0.18
608622,5.616666666666666,-0.18
608623,5.6194444444444445,-0.185
608624,5.622222222222222,-0.185
608625,5.625,-0.2
608626,5.627777777777778,-0.22
608627,5.6305555555555555,-0.24
608628,5.633333333333334,-0.25
608629,5.636111111111111,-0.25
608630,5.638888888888889,-0.235
608631,5.641666666666667,-0.235
608632,5.644444444444445,-0.23
608633,5.647222222222222,-0.24
608634,5.65,-0.23
608635,5.652777777777778,-0.24
608636,5.655555555555556,-0.24
608637,5.658333333333333,-0.22
608638,5.661111111111111,-0.22
608639,5.663888888888889,-0.215
608640,5.666666666666667,-0.23
608641,5.669444444444444,-0.235
608642,5.6722222222222225,-0.225
608643,5.675,-0.22
608644,5.677777777777778,-0.215
608645,5.680555555555555,-0.195
608646,5.683333333333334,-0.205
608647,5.686111111111111,-0.22
608648,5.688888888888889,-0.22
608649,5.691666666666666,-0.215
608650,5.694444444444445,-0.205
608651,5.697222222222222,-0.195
608652,5.7,-0.185
608653,5.7027777777777775,-0.18
608654,5.705555555555556,-0.165
608655,5.708333333333333,-0.165
608656,5.711111111111111,-0.17
608657,5.713888888888889,-0.165
608658,5.716666666666667,-0.16
608659,5.719444444444444,-0.175
608660,5.722222222222222,-0.165
608661,5.725,-0.145
608662,5.727777777777778,-0.135
608663,5.730555555555555,-0.135
608664,5.733333333333333,-0.155
608665,5.736111111111111,-0.165
608666,5.738888888888889,-0.175
608667,5.741666666666666,-0.185
608668,5.7444444444444445,-0.19
608669,5.747222222222222,-0.195
608670,5.75,-0.205
608671,5.752777777777778,-0.2
608672,5.7555555555555555,-0.195
608673,5.758333333333334,-0.175
608674,5.761111111111111,-0.17
608675,5.763888888888889,-0.18
608676,5.766666666666667,-0.195
608677,5.769444444444445,-0.2
608678,5.772222222222222,-0.21
608679,5.775,-0.21
608680,5.777777777777778,-0.205
608681,5.780555555555556,-0.195
608682,5.783333333333333,-0.2
608683,5.786111111111111,-0.225
608684,5.788888888888889,-0.19
608685,5.791666666666667,-0.175
608686,5.794444444444444,-0.175
608687,5.7972222222222225,-0.175
608688,5.8,-0.185
608689,5.802777777777778,-0.2
608690,5.805555555555555,-0.21
608691,5.808333333333334,-0.21
608692,5.811111111111111,-0.19
608693,5.813888888888889,-0.185
608694,5.816666666666666,-0.19
608695,5.819444444444445,-0.215
608696,5.822222222222222,-0.22
608697,5.825,-0.225
608698,5.8277777777777775,-0.22
608699,5.830555555555556,-0.245
608700,5.833333333333333,-0.26
608701,5.836111111111111,-0.25
608702,5.838888888888889,-0.2
608703,5.841666666666667,-0.18
608704,5.844444444444444,-0.175
608705,5.847222222222222,-0.2
608706,5.85,-0.215
608707,5.852777777777778,-0.225
608708,5.855555555555555,-0.215
608709,5.858333333333333,-0.205
608710,5.861111111111111,-0.21
608711,5.863888888888889,-0.22
608712,5.866666666666666,-0.23
608713,5.8694444444444445,-0.23
608714,5.872222222222222,-0.225
608715,5.875,-0.235
608716,5.877777777777778,-0.25
608717,5.8805555555555555,-0.27
608718,5.883333333333334,-0.27
608719,5.886111111111111,-0.24
608720,5.888888888888889,-0.17
608721,5.891666666666667,-0.08
608722,5.894444444444445,0.005
608723,5.897222222222222,0.085
608724,5.9,0.155
608725,5.902777777777778,0.235
608726,5.905555555555556,0.315
608727,5.908333333333333,0.39
608728,5.911111111111111,0.485
608729,5.913888888888889,0.58
608730,5.916666666666667,0.67
608731,5.919444444444444,0.73
608732,5.9222222222222225,0.76
608733,5.925,0.72
608734,5.927777777777778,0.65
608735,5.930555555555555,0.575
608736,5.933333333333334,0.465
608737,5.936111111111111,0.36
608738,5.938888888888889,0.205
608739,5.941666666666666,-0.015
608740,5.944444444444445,-0.23
608741,5.947222222222222,-0.38
608742,5.95,-0.48
608743,5.9527777777777775,-0.505
608744,5.955555555555556,-0.48
608745,5.958333333333333,-0.42
608746,5.961111111111111,-0.375
608747,5.963888888888889,-0.325
608748,5.966666666666667,-0.3
608749,5.969444444444444,-0.285
608750,5.972222222222222,-0.27
608751,5.975,-0.275
608752,5.977777777777778,-0.285
608753,5.980555555555555,-0.3
608754,5.983333333333333,-0.325
608755,5.986111111111111,-0.35
608756,5.988888888888889,-0.35
608757,5.991666666666666,-0.355
608758,5.9944444444444445,-0.355
608759,5.997222222222222,-0.34
608760,6.0,-0.35
608761,6.002777777777778,-0.345
608762,6.0055555555555555,-0.325
608763,6.008333333333334,-0.32
608764,6.011111111111111,-0.315
608765,6.013888888888889,-0.315
608766,6.016666666666667,-0.3
608767,6.019444444444445,-0.275
608768,6.022222222222222,-0.26
608769,6.025,-0.265
608770,6.027777777777778,-0.275
608771,6.030555555555556,-0.28
608772,6.033333333333333,-0.285
608773,6.036111111111111,-0.28
608774,6.038888888888889,-0.28
608775,6.041666666666667,-0.28
608776,6.044444444444444,-0.27
608777,6.0472222222222225,-0.265
608778,6.05,-0.28
608779,6.052777777777778,-0.275
608780,6.055555555555555,-0.26
608781,6.058333333333334,-0.255
608782,6.061111111111111,-0.24
608783,6.063888888888889,-0.235
608784,6.066666666666666,-0.26
608785,6.069444444444445,-0.265
608786,6.072222222222222,-0.285
608787,6.075,-0.265
608788,6.0777777777777775,-0.255
608789,6.080555555555556,-0.255
608790,6.083333333333333,-0.255
608791,6.086111111111111,-0.245
608792,6.088888888888889,-0.24
608793,6.091666666666667,-0.22
608794,6.094444444444444,-0.21
608795,6.097222222222222,-0.21
608796,6.1,-0.225
608797,6.102777777777778,-0.23
608798,6.105555555555555,-0.215
608799,6.108333333333333,-0.205
608800,6.111111111111111,-0.195
608801,6.113888888888889,-0.19
608802,6.116666666666666,-0.195
608803,6.1194444444444445,-0.2
608804,6.122222222222222,-0.195
608805,6.125,-0.185
608806,6.127777777777778,-0.17
608807,6.1305555555555555,-0.165
608808,6.133333333333334,-0.16
608809,6.136111111111111,-0.165
608810,6.138888888888889,-0.16
608811,6.141666666666667,-0.15
608812,6.144444444444445,-0.15
608813,6.147222222222222,-0.14
608814,6.15,-0.13
608815,6.152777777777778,-0.125
608816,6.155555555555556,-0.12
608817,6.158333333333333,-0.12
608818,6.161111111111111,-0.12
608819,6.163888888888889,-0.11
608820,6.166666666666667,-0.12
608821,6.169444444444444,-0.11
608822,6.1722222222222225,-0.08
608823,6.175,-0.065
608824,6.177777777777778,-0.07
608825,6.180555555555555,-0.06
608826,6.183333333333334,-0.065
608827,6.186111111111111,-0.06
608828,6.188888888888889,-0.05
608829,6.191666666666666,-0.045
608830,6.194444444444445,-0.045
608831,6.197222222222222,-0.045
608832,6.2,-0.05
608833,6.2027777777777775,-0.04
608834,6.205555555555556,-0.04
608835,6.208333333333333,-0.04
608836,6.211111111111111,-0.02
608837,6.213888888888889,-0.015
608838,6.216666666666667,-0.02
608839,6.219444444444444,-0.02
608840,6.222222222222222,-0.03
608841,6.225,-0.02
608842,6.227777777777778,-0.02
608843,6.230555555555555,-0.025
608844,6.233333333333333,-0.025
608845,6.236111111111111,-0.04
608846,6.238888888888889,-0.045
608847,6.241666666666666,-0.04
608848,6.2444444444444445,-0.04
608849,6.247222222222222,-0.04
608850,6.25,-0.05
608851,6.252777777777778,-0.07
608852,6.2555555555555555,-0.065
608853,6.258333333333334,-0.07
608854,6.261111111111111,-0.07
608855,6.263888888888889,-0.075
608856,6.266666666666667,-0.095
608857,6.269444444444445,-0.11
608858,6.272222222222222,-0.11
608859,6.275,-0.1
608860,6.277777777777778,-0.105
608861,6.280555555555556,-0.11
608862,6.283333333333333,-0.115
608863,6.286111111111111,-0.105
608864,6.288888888888889,-0.095
608865,6.291666666666667,-0.1
608866,6.294444444444444,-0.1
608867,6.2972222222222225,-0.115
608868,6.3,-0.12
608869,6.302777777777778,-0.125
608870,6.305555555555555,-0.13
608871,6.308333333333334,-0.135
608872,6.311111111111111,-0.135
608873,6.313888888888889,-0.135
608874,6.316666666666666,-0.155
608875,6.319444444444445,-0.15
608876,6.322222222222222,-0.145
608877,6.325,-0.135
608878,6.3277777777777775,-0.14
608879,6.330555555555556,-0.15
608880,6.333333333333333,-0.17
608881,6.336111111111111,-0.175
608882,6.338888888888889,-0.175
608883,6.341666666666667,-0.15
608884,6.344444444444444,-0.155
608885,6.347222222222222,-0.155
608886,6.35,-0.165
608887,6.352777777777778,-0.15
608888,6.355555555555555,-0.145
608889,6.358333333333333,-0.155
608890,6.361111111111111,-0.175
608891,6.363888888888889,-0.2
608892,6.366666666666666,-0.205
608893,6.3694444444444445,-0.2
608894,6.372222222222222,-0.19
608895,6.375,-0.165
608896,6.377777777777778,-0.145
608897,6.3805555555555555,-0.135
608898,6.383333333333334,-0.145
608899,6.386111111111111,-0.17
608900,6.388888888888889,-0.165
608901,6.391666666666667,-0.165
608902,6.394444444444445,-0.165
608903,6.397222222222222,-0.145
608904,6.4,-0.125
608905,6.402777777777778,-0.105
608906,6.405555555555556,-0.11
608907,6.408333333333333,-0.11
608908,6.411111111111111,-0.11
608909,6.413888888888889,-0.11
608910,6.416666666666667,-0.105
608911,6.419444444444444,-0.1
608912,6.4222222222222225,-0.075
608913,6.425,-0.06
608914,6.427777777777778,-0.075
608915,6.430555555555555,-0.085
608916,6.433333333333334,-0.105
608917,6.436111111111111,-0.125
608918,6.438888888888889,-0.115
608919,6.441666666666666,-0.12
608920,6.444444444444445,-0.13
608921,6.447222222222222,-0.125
608922,6.45,-0.14
608923,6.4527777777777775,-0.13
608924,6.455555555555556,-0.125
608925,6.458333333333333,-0.115
608926,6.461111111111111,-0.125
608927,6.463888888888889,-0.14
608928,6.466666666666667,-0.155
608929,6.469444444444444,-0.14
608930,6.472222222222222,-0.12
608931,6.475,-0.105
608932,6.477777777777778,-0.11
608933,6.480555555555555,-0.11
608934,6.483333333333333,-0.115
608935,6.486111111111111,-0.13
608936,6.488888888888889,-0.145
608937,6.491666666666666,-0.15
608938,6.4944444444444445,-0.13
608939,6.497222222222222,-0.145
608940,6.5,-0.16
608941,6.502777777777778,-0.165
608942,6.5055555555555555,-0.165
608943,6.508333333333334,-0.145
608944,6.511111111111111,-0.14
608945,6.513888888888889,-0.15
608946,6.516666666666667,-0.165
608947,6.519444444444445,-0.16
608948,6.522222222222222,-0.14
608949,6.525,-0.125
608950,6.527777777777778,-0.115
608951,6.530555555555556,-0.125
608952,6.533333333333333,-0.15
608953,6.536111111111111,-0.175
608954,6.538888888888889,-0.16
608955,6.541666666666667,-0.15
608956,6.544444444444444,-0.16
608957,6.5472222222222225,-0.185
608958,6.55,-0.205
608959,6.552777777777778,-0.165
608960,6.555555555555555,-0.07
608961,6.558333333333334,0.02
608962,6.561111111111111,0.13
608963,6.563888888888889,0.245
608964,6.566666666666666,0.36
608965,6.569444444444445,0.445
608966,6.572222222222222,0.545
608967,6.575,0.645
608968,6.5777777777777775,0.765
608969,6.580555555555556,0.83
608970,6.583333333333333,0.825
608971,6.586111111111111,0.765
608972,6.588888888888889,0.675
608973,6.591666666666667,0.575
608974,6.594444444444444,0.43
608975,6.597222222222222,0.205
608976,6.6,-0.055
608977,6.602777777777778,-0.275
608978,6.605555555555555,-0.39
608979,6.608333333333333,-0.41
608980,6.611111111111111,-0.37
608981,6.613888888888889,-0.295
608982,6.616666666666666,-0.23
608983,6.6194444444444445,-0.19
608984,6.622222222222222,-0.175
608985,6.625,-0.185
608986,6.627777777777778,-0.21
608987,6.6305555555555555,-0.245
608988,6.633333333333334,-0.275
608989,6.636111111111111,-0.285
608990,6.638888888888889,-0.3
608991,6.641666666666667,-0.285
608992,6.644444444444445,-0.275
608993,6.647222222222222,-0.265
608994,6.65,-0.27
608995,6.652777777777778,-0.265
608996,6.655555555555556,-0.23
608997,6.658333333333333,-0.215
608998,6.661111111111111,-0.225
608999,6.663888888888889,-0.235
609000,6.666666666666667,-0.25
609001,6.669444444444444,-0.24
609002,6.6722222222222225,-0.24
609003,6.675,-0.23
609004,6.677777777777778,-0.225
609005,6.680555555555555,-0.22
609006,6.683333333333334,-0.215
609007,6.686111111111111,-0.235
609008,6.688888888888889,-0.215
609009,6.691666666666666,-0.21
609010,6.694444444444445,-0.21
609011,6.697222222222222,-0.21
609012,6.7,-0.215
609013,6.7027777777777775,-0.225
609014,6.705555555555556,-0.23
609015,6.708333333333333,-0.215
609016,6.711111111111111,-0.22
609017,6.713888888888889,-0.215
609018,6.716666666666667,-0.21
609019,6.719444444444444,-0.21
609020,6.722222222222222,-0.2
609021,6.725,-0.2
609022,6.727777777777778,-0.2
609023,6.730555555555555,-0.18
609024,6.733333333333333,-0.185
609025,6.736111111111111,-0.195
609026,6.738888888888889,-0.2
609027,6.741666666666666,-0.185
609028,6.7444444444444445,-0.18
609029,6.747222222222222,-0.165
609030,6.75,-0.165
609031,6.752777777777778,-0.18
609032,6.7555555555555555,-0.175
609033,6.758333333333334,-0.155
609034,6.761111111111111,-0.135
609035,6.763888888888889,-0.105
609036,6.766666666666667,-0.12
609037,6.769444444444445,-0.135
609038,6.772222222222222,-0.13
609039,6.775,-0.13
609040,6.777777777777778,-0.135
609041,6.780555555555556,-0.14
609042,6.783333333333333,-0.13
609043,6.786111111111111,-0.105
609044,6.788888888888889,-0.08
609045,6.791666666666667,-0.085
609046,6.794444444444444,-0.08
609047,6.7972222222222225,-0.09
609048,6.8,-0.09
609049,6.802777777777778,-0.08
609050,6.805555555555555,-0.08
609051,6.808333333333334,-0.07
609052,6.811111111111111,-0.065
609053,6.813888888888889,-0.07
609054,6.816666666666666,-0.065
609055,6.819444444444445,-0.06
609056,6.822222222222222,-0.045
609057,6.825,-0.04
609058,6.8277777777777775,-0.04
609059,6.830555555555556,-0.03
609060,6.833333333333333,-0.04
609061,6.836111111111111,-0.035
609062,6.838888888888889,-0.02
609063,6.841666666666667,0.01
609064,6.844444444444444,0.025
609065,6.847222222222222,0.03
609066,6.85,0.035
609067,6.852777777777778,0.025
609068,6.855555555555555,0.02
609069,6.858333333333333,0.02
609070,6.861111111111111,0.005
609071,6.863888888888889,0.02
609072,6.866666666666666,0.0
609073,6.8694444444444445,-0.01
609074,6.872222222222222,-0.005
609075,6.875,0.005
609076,6.877777777777778,-0.01
609077,6.8805555555555555,-0.02
609078,6.883333333333334,-0.035
609079,6.886111111111111,-0.05
609080,6.888888888888889,-0.045
609081,6.891666666666667,-0.04
609082,6.894444444444445,-0.045
609083,6.897222222222222,-0.055
609084,6.9,-0.07
609085,6.902777777777778,-0.08
609086,6.905555555555556,-0.06
609087,6.908333333333333,-0.065
609088,6.911111111111111,-0.07
609089,6.913888888888889,-0.09
609090,6.916666666666667,-0.1
609091,6.919444444444444,-0.1
609092,6.9222222222222225,-0.08
609093,6.925,-0.08
609094,6.927777777777778,-0.1
609095,6.930555555555555,-0.11
609096,6.933333333333334,-0.12
609097,6.936111111111111,-0.125
609098,6.938888888888889,-0.12
609099,6.941666666666666,-0.11
609100,6.944444444444445,-0.12
609101,6.947222222222222,-0.115
609102,6.95,-0.125
609103,6.9527777777777775,-0.125
609104,6.955555555555556,-0.11
609105,6.958333333333333,-0.095
609106,6.961111111111111,-0.085
609107,6.963888888888889,-0.085
609108,6.966666666666667,-0.08
609109,6.969444444444444,-0.105
609110,6.972222222222222,-0.12
609111,6.975,-0.13
609112,6.977777777777778,-0.14
609113,6.980555555555555,-0.15
609114,6.983333333333333,-0.145
609115,6.986111111111111,-0.14
609116,6.988888888888889,-0.12
609117,6.991666666666666,-0.11
609118,6.9944444444444445,-0.11
609119,6.997222222222222,-0.11
609120,7.0,-0.115
609121,7.002777777777778,-0.15
609122,7.0055555555555555,-0.16
609123,7.008333333333334,-0.18
609124,7.011111111111111,-0.195
609125,7.013888888888889,-0.22
609126,7.016666666666667,-0.23
609127,7.019444444444445,-0.22
609128,7.022222222222222,-0.2
609129,7.025,-0.2
609130,7.027777777777778,-0.22
609131,7.030555555555556,-0.22
609132,7.033333333333333,-0.23
609133,7.036111111111111,-0.23
609134,7.038888888888889,-0.225
609135,7.041666666666667,-0.215
609136,7.044444444444444,-0.21
609137,7.0472222222222225,-0.195
609138,7.05,-0.21
609139,7.052777777777778,-0.2
609140,7.055555555555555,-0.21
609141,7.058333333333334,-0.19
609142,7.061111111111111,-0.19
609143,7.063888888888889,-0.2
609144,7.066666666666666,-0.22
609145,7.069444444444445,-0.22
609146,7.072222222222222,-0.19
609147,7.075,-0.18
609148,7.0777777777777775,-0.195
609149,7.080555555555556,-0.21
609150,7.083333333333333,-0.215
609151,7.086111111111111,-0.195
609152,7.088888888888889,-0.175
609153,7.091666666666667,-0.165
609154,7.094444444444444,-0.2
609155,7.097222222222222,-0.23
609156,7.1,-0.26
609157,7.102777777777778,-0.255
609158,7.105555555555555,-0.205
609159,7.108333333333333,-0.125
609160,7.111111111111111,-0.055
609161,7.113888888888889,0.02
609162,7.116666666666666,0.1
609163,7.1194444444444445,0.205
609164,7.122222222222222,0.34
609165,7.125,0.465
609166,7.127777777777778,0.56
609167,7.1305555555555555,0.66
609168,7.133333333333334,0.74
609169,7.136111111111111,0.775
609170,7.138888888888889,0.745
609171,7.141666666666667,0.62
609172,7.144444444444445,0.46
609173,7.147222222222222,0.3
609174,7.15,0.095
609175,7.152777777777778,-0.16
609176,7.155555555555556,-0.36
609177,7.158333333333333,-0.495
609178,7.161111111111111,-0.575
609179,7.163888888888889,-0.585
609180,7.166666666666667,-0.52
609181,7.169444444444444,-0.44
609182,7.1722222222222225,-0.375
609183,7.175,-0.355
609184,7.177777777777778,-0.315
609185,7.180555555555555,-0.28
609186,7.183333333333334,-0.265
609187,7.186111111111111,-0.295
609188,7.188888888888889,-0.315
609189,7.191666666666666,-0.335
609190,7.194444444444445,-0.33
609191,7.197222222222222,-0.315
609192,7.2,-0.3
609193,7.2027777777777775,-0.29
609194,7.205555555555556,-0.28
609195,7.208333333333333,-0.235
609196,7.211111111111111,-0.2
609197,7.213888888888889,-0.185
609198,7.216666666666667,-0.2
609199,7.219444444444444,-0.22
609200,7.222222222222222,-0.235
609201,7.225,-0.235
609202,7.227777777777778,-0.225
609203,7.230555555555555,-0.225
609204,7.233333333333333,-0.25
609205,7.236111111111111,-0.27
609206,7.238888888888889,-0.26
609207,7.241666666666666,-0.25
609208,7.2444444444444445,-0.25
609209,7.247222222222222,-0.26
609210,7.25,-0.24
609211,7.252777777777778,-0.23
609212,7.2555555555555555,-0.215
609213,7.258333333333334,-0.21
609214,7.261111111111111,-0.21
609215,7.263888888888889,-0.205
609216,7.266666666666667,-0.21
609217,7.269444444444445,-0.21
609218,7.272222222222222,-0.2
609219,7.275,-0.18
609220,7.277777777777778,-0.18
609221,7.280555555555556,-0.17
609222,7.283333333333333,-0.18
609223,7.286111111111111,-0.19
609224,7.288888888888889,-0.18
609225,7.291666666666667,-0.165
609226,7.294444444444444,-0.15
609227,7.2972222222222225,-0.14
609228,7.3,-0.145
609229,7.302777777777778,-0.135
609230,7.305555555555555,-0.12
609231,7.308333333333334,-0.1
609232,7.311111111111111,-0.12
609233,7.313888888888889,-0.115
609234,7.316666666666666,-0.095
609235,7.319444444444445,-0.1
609236,7.322222222222222,-0.09
609237,7.325,-0.09
609238,7.3277777777777775,-0.09
609239,7.330555555555556,-0.08
609240,7.333333333333333,-0.06
609241,7.336111111111111,-0.065
609242,7.338888888888889,-0.055
609243,7.341666666666667,-0.04
609244,7.344444444444444,-0.045
609245,7.347222222222222,-0.06
609246,7.35,-0.075
609247,7.352777777777778,-0.055
609248,7.355555555555555,-0.03
609249,7.358333333333333,0.01
609250,7.361111111111111,0.015
609251,7.363888888888889,0.01
609252,7.366666666666666,0.0
609253,7.3694444444444445,-0.025
609254,7.372222222222222,-0.015
609255,7.375,-0.005
609256,7.377777777777778,0.005
609257,7.3805555555555555,-0.01
609258,7.383333333333334,-0.01
609259,7.386111111111111,-0.02
609260,7.388888888888889,-0.015
609261,7.391666666666667,-0.015
609262,7.394444444444445,-0.01
609263,7.397222222222222,-0.015
609264,7.4,-0.02
609265,7.402777777777778,-0.035
609266,7.405555555555556,-0.04
609267,7.408333333333333,-0.03
609268,7.411111111111111,-0.025
609269,7.413888888888889,-0.045
609270,7.416666666666667,-0.07
609271,7.419444444444444,-0.09
609272,7.4222222222222225,-0.095
609273,7.425,-0.09
609274,7.427777777777778,-0.105
609275,7.430555555555555,-0.115
609276,7.433333333333334,-0.125
609277,7.436111111111111,-0.115
609278,7.438888888888889,-0.09
609279,7.441666666666666,-0.085
609280,7.444444444444445,-0.085
609281,7.447222222222222,-0.095
609282,7.45,-0.105
609283,7.4527777777777775,-0.115
609284,7.455555555555556,-0.11
609285,7.458333333333333,-0.1
609286,7.461111111111111,-0.115
609287,7.463888888888889,-0.145
609288,7.466666666666667,-0.18
609289,7.469444444444444,-0.19
609290,7.472222222222222,-0.175
609291,7.475,-0.165
609292,7.477777777777778,-0.16
609293,7.480555555555555,-0.15
609294,7.483333333333333,-0.16
609295,7.486111111111111,-0.16
609296,7.488888888888889,-0.16
609297,7.491666666666666,-0.14
609298,7.4944444444444445,-0.15
609299,7.497222222222222,-0.155
609300,7.5,-0.165
609301,7.502777777777778,-0.17
609302,7.5055555555555555,-0.175
609303,7.508333333333334,-0.17
609304,7.511111111111111,-0.165
609305,7.513888888888889,-0.18
609306,7.516666666666667,-0.18
609307,7.519444444444445,-0.18
609308,7.522222222222222,-0.175
609309,7.525,-0.15
609310,7.527777777777778,-0.15
609311,7.530555555555556,-0.155
609312,7.533333333333333,-0.17
609313,7.536111111111111,-0.17
609314,7.538888888888889,-0.155
609315,7.541666666666667,-0.14
609316,7.544444444444444,-0.145
609317,7.5472222222222225,-0.145
609318,7.55,-0.15
609319,7.552777777777778,-0.135
609320,7.555555555555555,-0.12
609321,7.558333333333334,-0.095
609322,7.561111111111111,-0.095
609323,7.563888888888889,-0.12
609324,7.566666666666666,-0.16
609325,7.569444444444445,-0.19
609326,7.572222222222222,-0.2
609327,7.575,-0.18
609328,7.5777777777777775,-0.165
609329,7.580555555555556,-0.18
609330,7.583333333333333,-0.185
609331,7.586111111111111,-0.175
609332,7.588888888888889,-0.165
609333,7.591666666666667,-0.17
609334,7.594444444444444,-0.185
609335,7.597222222222222,-0.185
609336,7.6,-0.2
609337,7.602777777777778,-0.205
609338,7.605555555555555,-0.205
609339,7.608333333333333,-0.17
609340,7.611111111111111,-0.17
609341,7.613888888888889,-0.15
609342,7.616666666666666,-0.15
609343,7.6194444444444445,-0.145
609344,7.622222222222222,-0.14
609345,7.625,-0.135
609346,7.627777777777778,-0.145
609347,7.6305555555555555,-0.15
609348,7.633333333333334,-0.15
609349,7.636111111111111,-0.16
609350,7.638888888888889,-0.125
609351,7.641666666666667,-0.12
609352,7.644444444444445,-0.125
609353,7.647222222222222,-0.11
609354,7.65,-0.105
609355,7.652777777777778,-0.1
609356,7.655555555555556,-0.09
609357,7.658333333333333,-0.115
609358,7.661111111111111,-0.135
609359,7.663888888888889,-0.165
609360,7.666666666666667,-0.175
609361,7.669444444444444,-0.16
609362,7.6722222222222225,-0.135
609363,7.675,-0.12
609364,7.677777777777778,-0.115
609365,7.680555555555555,-0.12
609366,7.683333333333334,-0.125
609367,7.686111111111111,-0.11
609368,7.688888888888889,-0.09
609369,7.691666666666666,-0.075
609370,7.694444444444445,-0.055
609371,7.697222222222222,-0.075
609372,7.7,-0.1
609373,7.7027777777777775,-0.125
609374,7.705555555555556,-0.145
609375,7.708333333333333,-0.165
609376,7.711111111111111,-0.2
609377,7.713888888888889,-0.17
609378,7.716666666666667,-0.15
609379,7.719444444444444,-0.13
609380,7.722222222222222,-0.125
609381,7.725,-0.14
609382,7.727777777777778,-0.16
609383,7.730555555555555,-0.18
609384,7.733333333333333,-0.175
609385,7.736111111111111,-0.155
609386,7.738888888888889,-0.16
609387,7.741666666666666,-0.13
609388,7.7444444444444445,-0.135
609389,7.747222222222222,-0.13
609390,7.75,-0.14
609391,7.752777777777778,-0.15
609392,7.7555555555555555,-0.135
609393,7.758333333333334,-0.13
609394,7.761111111111111,-0.125
609395,7.763888888888889,-0.125
609396,7.766666666666667,-0.135
609397,7.769444444444445,-0.145
609398,7.772222222222222,-0.13
609399,7.775,-0.125
609400,7.777777777777778,-0.13
609401,7.780555555555556,-0.125
609402,7.783333333333333,-0.12
609403,7.786111111111111,-0.125
609404,7.788888888888889,-0.115
609405,7.791666666666667,-0.1
609406,7.794444444444444,-0.115
609407,7.7972222222222225,-0.12
609408,7.8,-0.135
609409,7.802777777777778,-0.14
609410,7.805555555555555,-0.14
609411,7.808333333333334,-0.135
609412,7.811111111111111,-0.135
609413,7.813888888888889,-0.13
609414,7.816666666666666,-0.12
609415,7.819444444444445,-0.11
609416,7.822222222222222,-0.105
609417,7.825,-0.1
609418,7.8277777777777775,-0.1
609419,7.830555555555556,-0.11
609420,7.833333333333333,-0.12
609421,7.836111111111111,-0.13
609422,7.838888888888889,-0.125
609423,7.841666666666667,-0.105
609424,7.844444444444444,-0.11
609425,7.847222222222222,-0.12
609426,7.85,-0.12
609427,7.852777777777778,-0.12
609428,7.855555555555555,-0.12
609429,7.858333333333333,-0.1
609430,7.861111111111111,-0.105
609431,7.863888888888889,-0.105
609432,7.866666666666666,-0.095
609433,7.8694444444444445,-0.1
609434,7.872222222222222,-0.1
609435,7.875,-0.1
609436,7.877777777777778,-0.095
609437,7.8805555555555555,-0.09
609438,7.883333333333334,-0.095
609439,7.886111111111111,-0.105
609440,7.888888888888889,-0.12
609441,7.891666666666667,-0.1
609442,7.894444444444445,-0.08
609443,7.897222222222222,-0.075
609444,7.9,-0.085
609445,7.902777777777778,-0.09
609446,7.905555555555556,-0.09
609447,7.908333333333333,-0.08
609448,7.911111111111111,-0.07
609449,7.913888888888889,-0.085
609450,7.916666666666667,-0.1
609451,7.919444444444444,-0.115
609452,7.9222222222222225,-0.115
609453,7.925,-0.125
609454,7.927777777777778,-0.13
609455,7.930555555555555,-0.13
609456,7.933333333333334,-0.145
609457,7.936111111111111,-0.155
609458,7.938888888888889,-0.15
609459,7.941666666666666,-0.155
609460,7.944444444444445,-0.145
609461,7.947222222222222,-0.155
609462,7.95,-0.17
609463,7.9527777777777775,-0.165
609464,7.955555555555556,-0.155
609465,7.958333333333333,-0.15
609466,7.961111111111111,-0.155
609467,7.963888888888889,-0.16
609468,7.966666666666667,-0.16
609469,7.969444444444444,-0.15
609470,7.972222222222222,-0.14
609471,7.975,-0.125
609472,7.977777777777778,-0.13
609473,7.980555555555555,-0.125
609474,7.983333333333333,-0.115
609475,7.986111111111111,-0.12
609476,7.988888888888889,-0.12
609477,7.991666666666666,-0.12
609478,7.9944444444444445,-0.13
609479,7.997222222222222,-0.135
609480,8.0,-0.14
609481,8.002777777777778,-0.135
609482,8.005555555555556,-0.1
609483,8.008333333333333,-0.095
609484,8.011111111111111,-0.135
609485,8.01388888888889,-0.185
609486,8.016666666666667,-0.215
609487,8.019444444444444,-0.18
609488,8.022222222222222,-0.155
609489,8.025,-0.125
609490,8.027777777777779,-0.115
609491,8.030555555555555,-0.125
609492,8.033333333333333,-0.125
609493,8.036111111111111,-0.13
609494,8.03888888888889,-0.125
609495,8.041666666666666,-0.12
609496,8.044444444444444,-0.145
609497,8.047222222222222,-0.185
609498,8.05,-0.215
609499,8.052777777777777,-0.225
609500,8.055555555555555,-0.175
609501,8.058333333333334,-0.075
609502,8.061111111111112,0.04
609503,8.063888888888888,0.135
609504,8.066666666666666,0.245
609505,8.069444444444445,0.34
609506,8.072222222222223,0.455
609507,8.075,0.58
609508,8.077777777777778,0.71
609509,8.080555555555556,0.825
609510,8.083333333333334,0.9
609511,8.08611111111111,0.92
609512,8.088888888888889,0.855
609513,8.091666666666667,0.71
609514,8.094444444444445,0.545
609515,8.097222222222221,0.36
609516,8.1,0.095
609517,8.102777777777778,-0.16
609518,8.105555555555556,-0.35
609519,8.108333333333333,-0.44
609520,8.11111111111111,-0.46
609521,8.113888888888889,-0.44
609522,8.116666666666667,-0.41
609523,8.119444444444444,-0.37
609524,8.122222222222222,-0.325
609525,8.125,-0.28
609526,8.127777777777778,-0.28
609527,8.130555555555556,-0.305
609528,8.133333333333333,-0.325
609529,8.136111111111111,-0.345
609530,8.13888888888889,-0.355
609531,8.141666666666667,-0.34
609532,8.144444444444444,-0.325
609533,8.147222222222222,-0.32
609534,8.15,-0.315
609535,8.152777777777779,-0.31
609536,8.155555555555555,-0.29
609537,8.158333333333333,-0.25
609538,8.161111111111111,-0.235
609539,8.16388888888889,-0.235
609540,8.166666666666666,-0.25
609541,8.169444444444444,-0.26
609542,8.172222222222222,-0.245
609543,8.175,-0.24
609544,8.177777777777777,-0.245
609545,8.180555555555555,-0.245
609546,8.183333333333334,-0.265
609547,8.186111111111112,-0.26
609548,8.188888888888888,-0.255
609549,8.191666666666666,-0.255
609550,8.194444444444445,-0.245
609551,8.197222222222223,-0.255
609552,8.2,-0.27
609553,8.202777777777778,-0.275
609554,8.205555555555556,-0.27
609555,8.208333333333334,-0.25
609556,8.21111111111111,-0.255
609557,8.213888888888889,-0.275
609558,8.216666666666667,-0.27
609559,8.219444444444445,-0.255
609560,8.222222222222221,-0.24
609561,8.225,-0.2
609562,8.227777777777778,-0.2
609563,8.230555555555556,-0.22
609564,8.233333333333333,-0.26
609565,8.23611111111111,-0.28
609566,8.238888888888889,-0.26
609567,8.241666666666667,-0.23
609568,8.244444444444444,-0.21
609569,8.247222222222222,-0.22
609570,8.25,-0.215
609571,8.252777777777778,-0.235
609572,8.255555555555556,-0.215
609573,8.258333333333333,-0.185
609574,8.261111111111111,-0.19
609575,8.26388888888889,-0.2
609576,8.266666666666667,-0.2
609577,8.269444444444444,-0.2
609578,8.272222222222222,-0.165
609579,8.275,-0.145
609580,8.277777777777779,-0.155
609581,8.280555555555555,-0.16
609582,8.283333333333333,-0.17
609583,8.286111111111111,-0.185
609584,8.28888888888889,-0.155
609585,8.291666666666666,-0.125
609586,8.294444444444444,-0.115
609587,8.297222222222222,-0.12
609588,8.3,-0.12
609589,8.302777777777777,-0.105
609590,8.305555555555555,-0.095
609591,8.308333333333334,-0.055
609592,8.311111111111112,-0.07
609593,8.313888888888888,-0.09
609594,8.316666666666666,-0.105
609595,8.319444444444445,-0.095
609596,8.322222222222223,-0.07
609597,8.325,-0.045
609598,8.327777777777778,-0.05
609599,8.330555555555556,-0.065
609600,8.333333333333334,-0.065
609601,8.33611111111111,-0.065
609602,8.338888888888889,-0.04
609603,8.341666666666667,-0.02
609604,8.344444444444445,-0.02
609605,8.347222222222221,-0.025
609606,8.35,-0.04
609607,8.352777777777778,-0.03
609608,8.355555555555556,-0.02
609609,8.358333333333333,0.005
609610,8.36111111111111,-0.005
609611,8.363888888888889,0.0
609612,8.366666666666667,-0.005
609613,8.369444444444444,-0.015
609614,8.372222222222222,-0.01
609615,8.375,-0.005
609616,8.377777777777778,-0.02
609617,8.380555555555556,-0.015
609618,8.383333333333333,-0.02
609619,8.386111111111111,-0.02
609620,8.38888888888889,0.0
609621,8.391666666666667,0.0
609622,8.394444444444444,-0.01
609623,8.397222222222222,-0.015
609624,8.4,-0.02
609625,8.402777777777779,-0.035
609626,8.405555555555555,-0.035
609627,8.408333333333333,-0.035
609628,8.411111111111111,-0.045
609629,8.41388888888889,-0.05
609630,8.416666666666666,-0.05
609631,8.419444444444444,-0.055
609632,8.422222222222222,-0.05
609633,8.425,-0.05
609634,8.427777777777777,-0.06
609635,8.430555555555555,-0.07
609636,8.433333333333334,-0.08
609637,8.436111111111112,-0.09
609638,8.438888888888888,-0.085
609639,8.441666666666666,-0.075
609640,8.444444444444445,-0.085
609641,8.447222222222223,-0.09
609642,8.45,-0.1
609643,8.452777777777778,-0.105
609644,8.455555555555556,-0.1
609645,8.458333333333334,-0.085
609646,8.46111111111111,-0.09
609647,8.463888888888889,-0.105
609648,8.466666666666667,-0.12
609649,8.469444444444445,-0.12
609650,8.472222222222221,-0.11
609651,8.475,-0.11
609652,8.477777777777778,-0.125
609653,8.480555555555556,-0.14
609654,8.483333333333333,-0.165
609655,8.48611111111111,-0.16
609656,8.488888888888889,-0.14
609657,8.491666666666667,-0.115
609658,8.494444444444444,-0.11
609659,8.497222222222222,-0.11
609660,8.5,-0.125
609661,8.502777777777778,-0.155
609662,8.505555555555556,-0.15
609663,8.508333333333333,-0.16
609664,8.511111111111111,-0.18
609665,8.51388888888889,-0.2
609666,8.516666666666667,-0.2
609667,8.519444444444444,-0.19
609668,8.522222222222222,-0.175
609669,8.525,-0.16
609670,8.527777777777779,-0.15
609671,8.530555555555555,-0.14
609672,8.533333333333333,-0.13
609673,8.536111111111111,-0.125
609674,8.53888888888889,-0.115
609675,8.541666666666666,-0.11
609676,8.544444444444444,-0.105
609677,8.547222222222222,-0.12
609678,8.55,-0.14
609679,8.552777777777777,-0.125
609680,8.555555555555555,-0.095
609681,8.558333333333334,-0.065
609682,8.561111111111112,-0.07
609683,8.563888888888888,-0.075
609684,8.566666666666666,-0.065
609685,8.569444444444445,-0.06
609686,8.572222222222223,-0.035
609687,8.575,-0.02
609688,8.577777777777778,-0.015
609689,8.580555555555556,0.015
609690,8.583333333333334,0.025
609691,8.58611111111111,0.055
609692,8.588888888888889,0.05
609693,8.591666666666667,0.03
609694,8.594444444444445,-0.02
609695,8.597222222222221,-0.075
609696,8.6,-0.125
609697,8.602777777777778,-0.2
609698,8.605555555555556,-0.345
609699,8.608333333333333,-0.575
609700,8.61111111111111,-0.885
609701,8.613888888888889,-1.215
609702,8.616666666666667,-1.515
609703,8.619444444444444,-1.72
609704,8.622222222222222,-1.86
609705,8.625,-1.955
609706,8.627777777777778,-1.995
609707,8.630555555555556,-2.005
609708,8.633333333333333,-1.99
609709,8.636111111111111,-1.95
609710,8.63888888888889,-1.92
609711,8.641666666666667,-1.88
609712,8.644444444444444,-1.825
609713,8.647222222222222,-1.74
609714,8.65,-1.655
609715,8.652777777777779,-1.55
609716,8.655555555555555,-1.46
609717,8.658333333333333,-1.37
609718,8.661111111111111,-1.3
609719,8.66388888888889,-1.22
609720,8.666666666666666,-1.15
609721,8.669444444444444,-1.075
609722,8.672222222222222,-0.995
609723,8.675,-0.925
609724,8.677777777777777,-0.88
609725,8.680555555555555,-0.845
609726,8.683333333333334,-0.82
609727,8.686111111111112,-0.79
609728,8.688888888888888,-0.735
609729,8.691666666666666,-0.665
609730,8.694444444444445,-0.635
609731,8.697222222222223,-0.6
609732,8.7,-0.6
609733,8.702777777777778,-0.58
609734,8.705555555555556,-0.55
609735,8.708333333333334,-0.505
609736,8.71111111111111,-0.47
609737,8.713888888888889,-0.43
609738,8.716666666666667,-0.395
609739,8.719444444444445,-0.325
609740,8.722222222222221,-0.255
609741,8.725,-0.165
609742,8.727777777777778,-0.125
609743,8.730555555555556,-0.08
609744,8.733333333333333,-0.04
609745,8.73611111111111,0.015
609746,8.738888888888889,0.07
609747,8.741666666666667,0.105
609748,8.744444444444444,0.115
609749,8.747222222222222,0.115
609750,8.75,0.12
609751,8.752777777777778,0.13
609752,8.755555555555556,0.14
609753,8.758333333333333,0.18
609754,8.761111111111111,0.195
609755,8.76388888888889,0.21
609756,8.766666666666667,0.225
609757,8.769444444444444,0.245
609758,8.772222222222222,0.27
609759,8.775,0.285
609760,8.777777777777779,0.29
609761,8.780555555555555,0.27
609762,8.783333333333333,0.25
609763,8.786111111111111,0.24
609764,8.78888888888889,0.25
609765,8.791666666666666,0.27
609766,8.794444444444444,0.265
609767,8.797222222222222,0.27
609768,8.8,0.285
609769,8.802777777777777,0.305
609770,8.805555555555555,0.32
609771,8.808333333333334,0.335
609772,8.811111111111112,0.335
609773,8.813888888888888,0.35
609774,8.816666666666666,0.355
609775,8.819444444444445,0.375
609776,8.822222222222223,0.4
609777,8.825,0.415
609778,8.827777777777778,0.42
609779,8.830555555555556,0.4
609780,8.833333333333334,0.395
609781,8.83611111111111,0.4
609782,8.838888888888889,0.415
609783,8.841666666666667,0.44
609784,8.844444444444445,0.45
609785,8.847222222222221,0.455
609786,8.85,0.455
609787,8.852777777777778,0.47
609788,8.855555555555556,0.485
609789,8.858333333333333,0.51
609790,8.86111111111111,0.535
609791,8.863888888888889,0.53
609792,8.866666666666667,0.535
609793,8.869444444444444,0.535
609794,8.872222222222222,0.54
609795,8.875,0.55
609796,8.877777777777778,0.56
609797,8.880555555555556,0.56
609798,8.883333333333333,0.56
609799,8.886111111111111,0.56
609800,8.88888888888889,0.58
609801,8.891666666666667,0.6
609802,8.894444444444444,0.6
609803,8.897222222222222,0.6
609804,8.9,0.585
609805,8.902777777777779,0.59
609806,8.905555555555555,0.595
609807,8.908333333333333,0.595
609808,8.911111111111111,0.6
609809,8.91388888888889,0.6
609810,8.916666666666666,0.605
609811,8.919444444444444,0.59
609812,8.922222222222222,0.59
609813,8.925,0.59
609814,8.927777777777777,0.6
609815,8.930555555555555,0.59
609816,8.933333333333334,0.555
609817,8.936111111111112,0.52
609818,8.938888888888888,0.515
609819,8.941666666666666,0.52
609820,8.944444444444445,0.525
609821,8.947222222222223,0.51
609822,8.95,0.485
609823,8.952777777777778,0.46
609824,8.955555555555556,0.445
609825,8.958333333333334,0.445
609826,8.96111111111111,0.435
609827,8.963888888888889,0.43
609828,8.966666666666667,0.4
609829,8.969444444444445,0.395
609830,8.972222222222221,0.37
609831,8.975,0.355
609832,8.977777777777778,0.335
609833,8.980555555555556,0.32
609834,8.983333333333333,0.305
609835,8.98611111111111,0.29
609836,8.988888888888889,0.275
609837,8.991666666666667,0.245
609838,8.994444444444444,0.22
609839,8.997222222222222,0.18
609840,9.0,0.16
609841,9.002777777777778,0.155
609842,9.005555555555556,0.145
609843,9.008333333333333,0.14
609844,9.011111111111111,0.11
609845,9.01388888888889,0.095
609846,9.016666666666667,0.08
609847,9.019444444444444,0.075
609848,9.022222222222222,0.055
609849,9.025,0.05
609850,9.027777777777779,0.06
609851,9.030555555555555,0.045
609852,9.033333333333333,0.02
609853,9.036111111111111,0.01
609854,9.03888888888889,-0.005
609855,9.041666666666666,0.0
609856,9.044444444444444,-0.005
609857,9.047222222222222,-0.015
609858,9.05,-0.04
609859,9.052777777777777,-0.035
609860,9.055555555555555,-0.04
609861,9.058333333333334,-0.02
609862,9.061111111111112,-0.03
609863,9.063888888888888,-0.04
609864,9.066666666666666,-0.055
609865,9.069444444444445,-0.08
609866,9.072222222222223,-0.09
609867,9.075,-0.095
609868,9.077777777777778,-0.095
609869,9.080555555555556,-0.105
609870,9.083333333333334,-0.12
609871,9.08611111111111,-0.11
609872,9.088888888888889,-0.095
609873,9.091666666666667,-0.095
609874,9.094444444444445,-0.1
609875,9.097222222222221,-0.12
609876,9.1,-0.125
609877,9.102777777777778,-0.125
609878,9.105555555555556,-0.14
609879,9.108333333333333,-0.135
609880,9.11111111111111,-0.115
609881,9.113888888888889,-0.105
609882,9.116666666666667,-0.125
609883,9.119444444444444,-0.135
609884,9.122222222222222,-0.12
609885,9.125,-0.085
609886,9.127777777777778,-0.08
609887,9.130555555555556,-0.11
609888,9.133333333333333,-0.12
609889,9.136111111111111,-0.145
609890,9.13888888888889,-0.15
609891,9.141666666666667,-0.14
609892,9.144444444444444,-0.135
609893,9.147222222222222,-0.125
609894,9.15,-0.135
609895,9.152777777777779,-0.14
609896,9.155555555555555,-0.14
609897,9.158333333333333,-0.135
609898,9.161111111111111,-0.145
609899,9.16388888888889,-0.15
609900,9.166666666666666,-0.17
609901,9.169444444444444,-0.18
609902,9.172222222222222,-0.16
609903,9.175,-0.135
609904,9.177777777777777,-0.13
609905,9.180555555555555,-0.135
609906,9.183333333333334,-0.15
609907,9.186111111111112,-0.16
609908,9.188888888888888,-0.15
609909,9.191666666666666,-0.125
609910,9.194444444444445,-0.125
609911,9.197222222222223,-0.14
609912,9.2,-0.15
609913,9.202777777777778,-0.155
609914,9.205555555555556,-0.16
609915,9.208333333333334,-0.16
609916,9.21111111111111,-0.175
609917,9.213888888888889,-0.16
609918,9.216666666666667,-0.165
609919,9.219444444444445,-0.145
609920,9.222222222222221,-0.155
609921,9.225,-0.155
609922,9.227777777777778,-0.16
609923,9.230555555555556,-0.165
609924,9.233333333333333,-0.18
609925,9.23611111111111,-0.17
609926,9.238888888888889,-0.165
609927,9.241666666666667,-0.15
609928,9.244444444444444,-0.145
609929,9.247222222222222,-0.15
609930,9.25,-0.165
609931,9.252777777777778,-0.175
609932,9.255555555555556,-0.165
609933,9.258333333333333,-0.155
609934,9.261111111111111,-0.16
609935,9.26388888888889,-0.175
609936,9.266666666666667,-0.2
609937,9.269444444444444,-0.2
609938,9.272222222222222,-0.185
609939,9.275,-0.18
609940,9.277777777777779,-0.165
609941,9.280555555555555,-0.17
609942,9.283333333333333,-0.17
609943,9.286111111111111,-0.19
609944,9.28888888888889,-0.185
609945,9.291666666666666,-0.18
609946,9.294444444444444,-0.175
609947,9.297222222222222,-0.18
609948,9.3,-0.2
609949,9.302777777777777,-0.185
609950,9.305555555555555,-0.18
609951,9.308333333333334,-0.17
609952,9.311111111111112,-0.17
609953,9.313888888888888,-0.165
609954,9.316666666666666,-0.16
609955,9.319444444444445,-0.15
609956,9.322222222222223,-0.16
609957,9.325,-0.17
609958,9.327777777777778,-0.17
609959,9.330555555555556,-0.17
609960,9.333333333333334,-0.175
609961,9.33611111111111,-0.175
609962,9.338888888888889,-0.18
609963,9.341666666666667,-0.165
609964,9.344444444444445,-0.15
609965,9.347222222222221,-0.145
609966,9.35,-0.165
609967,9.352777777777778,-0.17
609968,9.355555555555556,-0.175
609969,9.358333333333333,-0.17
609970,9.36111111111111,-0.175
609971,9.363888888888889,-0.17
609972,9.366666666666667,-0.17
609973,9.369444444444444,-0.16
609974,9.372222222222222,-0.155
609975,9.375,-0.17
609976,9.377777777777778,-0.17
609977,9.380555555555556,-0.175
609978,9.383333333333333,-0.19
609979,9.386111111111111,-0.17
609980,9.38888888888889,-0.16
609981,9.391666666666667,-0.14
609982,9.394444444444444,-0.145
609983,9.397222222222222,-0.155
609984,9.4,-0.185
609985,9.402777777777779,-0.175
609986,9.405555555555555,-0.155
609987,9.408333333333333,-0.16
609988,9.411111111111111,-0.155
609989,9.41388888888889,-0.165
609990,9.416666666666666,-0.175
609991,9.419444444444444,-0.18
609992,9.422222222222222,-0.17
609993,9.425,-0.16
609994,9.427777777777777,-0.17
609995,9.430555555555555,-0.195
609996,9.433333333333334,-0.19
609997,9.436111111111112,-0.18
609998,9.438888888888888,-0.17
609999,9.441666666666666,-0.16
610000,9.444444444444445,-0.18
610001,9.447222222222223,-0.18
610002,9.45,-0.2
610003,9.452777777777778,-0.2
610004,9.455555555555556,-0.19
610005,9.458333333333334,-0.175
610006,9.46111111111111,-0.17
610007,9.463888888888889,-0.18
610008,9.466666666666667,-0.19
610009,9.469444444444445,-0.19
610010,9.472222222222221,-0.195
610011,9.475,-0.18
610012,9.477777777777778,-0.17
610013,9.480555555555556,-0.165
610014,9.483333333333333,-0.155
610015,9.48611111111111,-0.145
610016,9.488888888888889,-0.135
610017,9.491666666666667,-0.13
610018,9.494444444444444,-0.14
610019,9.497222222222222,-0.145
610020,9.5,-0.14
610021,9.502777777777778,-0.145
610022,9.505555555555556,-0.14
610023,9.508333333333333,-0.13
610024,9.511111111111111,-0.125
610025,9.51388888888889,-0.135
610026,9.516666666666667,-0.14
610027,9.519444444444444,-0.13
610028,9.522222222222222,-0.125
610029,9.525,-0.11
610030,9.527777777777779,-0.105
610031,9.530555555555555,-0.1
610032,9.533333333333333,-0.11
610033,9.536111111111111,-0.1
610034,9.53888888888889,-0.1
610035,9.541666666666666,-0.105
610036,9.544444444444444,-0.11
610037,9.547222222222222,-0.125
610038,9.55,-0.145
610039,9.552777777777777,-0.135
610040,9.555555555555555,-0.13
610041,9.558333333333334,-0.125
610042,9.561111111111112,-0.135
610043,9.563888888888888,-0.145
610044,9.566666666666666,-0.16
610045,9.569444444444445,-0.15
610046,9.572222222222223,-0.15
610047,9.575,-0.145
610048,9.577777777777778,-0.15
610049,9.580555555555556,-0.165
610050,9.583333333333334,-0.185
610051,9.58611111111111,-0.18
610052,9.588888888888889,-0.17
610053,9.591666666666667,-0.165
610054,9.594444444444445,-0.165
610055,9.597222222222221,-0.18
610056,9.6,-0.21
610057,9.602777777777778,-0.215
610058,9.605555555555556,-0.215
610059,9.608333333333333,-0.2
610060,9.61111111111111,-0.19
610061,9.613888888888889,-0.185
610062,9.616666666666667,-0.195
610063,9.619444444444444,-0.19
610064,9.622222222222222,-0.175
610065,9.625,-0.16
610066,9.627777777777778,-0.145
610067,9.630555555555556,-0.15
610068,9.633333333333333,-0.175
610069,9.636111111111111,-0.175
610070,9.63888888888889,-0.165
610071,9.641666666666667,-0.165
610072,9.644444444444444,-0.16
610073,9.647222222222222,-0.17
610074,9.65,-0.21
610075,9.652777777777779,-0.215
610076,9.655555555555555,-0.215
610077,9.658333333333333,-0.19
610078,9.661111111111111,-0.185
610079,9.66388888888889,-0.18
610080,9.666666666666666,-0.195
610081,9.669444444444444,-0.185
610082,9.672222222222222,-0.175
610083,9.675,-0.165
610084,9.677777777777777,-0.175
610085,9.680555555555555,-0.18
610086,9.683333333333334,-0.21
610087,9.686111111111112,-0.205
610088,9.688888888888888,-0.18
610089,9.691666666666666,-0.165
610090,9.694444444444445,-0.16
610091,9.697222222222223,-0.17
610092,9.7,-0.175
610093,9.702777777777778,-0.155
610094,9.705555555555556,-0.16
610095,9.708333333333334,-0.17
610096,9.71111111111111,-0.19
610097,9.713888888888889,-0.215
610098,9.716666666666667,-0.225
610099,9.719444444444445,-0.21
610100,9.722222222222221,-0.16
610101,9.725,-0.09
610102,9.727777777777778,-0.03
610103,9.730555555555556,0.01
610104,9.733333333333333,0.065
610105,9.73611111111111,0.145
610106,9.738888888888889,0.23
610107,9.741666666666667,0.3
610108,9.744444444444444,0.365
610109,9.747222222222222,0.41
610110,9.75,0.475
610111,9.752777777777778,0.545
610112,9.755555555555556,0.64
610113,9.758333333333333,0.72
610114,9.761111111111111,0.775
610115,9.76388888888889,0.785
610116,9.766666666666667,0.73
610117,9.769444444444444,0.655
610118,9.772222222222222,0.565
610119,9.775,0.465
610120,9.777777777777779,0.325
610121,9.780555555555555,0.115
610122,9.783333333333333,-0.125
610123,9.786111111111111,-0.32
610124,9.78888888888889,-0.445
610125,9.791666666666666,-0.515
610126,9.794444444444444,-0.57
610127,9.797222222222222,-0.6
610128,9.8,-0.585
610129,9.802777777777777,-0.555
610130,9.805555555555555,-0.505
610131,9.808333333333334,-0.465
610132,9.811111111111112,-0.45
610133,9.813888888888888,-0.455
610134,9.816666666666666,-0.44
610135,9.819444444444445,-0.405
610136,9.822222222222223,-0.365
610137,9.825,-0.345
610138,9.827777777777778,-0.345
610139,9.830555555555556,-0.365
610140,9.833333333333334,-0.395
610141,9.83611111111111,-0.395
610142,9.838888888888889,-0.375
610143,9.841666666666667,-0.35
610144,9.844444444444445,-0.35
610145,9.847222222222221,-0.36
610146,9.85,-0.375
610147,9.852777777777778,-0.36
610148,9.855555555555556,-0.35
610149,9.858333333333333,-0.325
610150,9.86111111111111,-0.33
610151,9.863888888888889,-0.335
610152,9.866666666666667,-0.355
610153,9.869444444444444,-0.34
610154,9.872222222222222,-0.33
610155,9.875,-0.305
610156,9.877777777777778,-0.29
610157,9.880555555555556,-0.28
610158,9.883333333333333,-0.29
610159,9.886111111111111,-0.3
610160,9.88888888888889,-0.31
610161,9.891666666666667,-0.29
610162,9.894444444444444,-0.295
610163,9.897222222222222,-0.3
610164,9.9,-0.315
610165,9.902777777777779,-0.31
610166,9.905555555555555,-0.305
610167,9.908333333333333,-0.285
610168,9.911111111111111,-0.29
610169,9.91388888888889,-0.305
610170,9.916666666666666,-0.32
610171,9.919444444444444,-0.305
610172,9.922222222222222,-0.285
610173,9.925,-0.275
610174,9.927777777777777,-0.27
610175,9.930555555555555,-0.27
610176,9.933333333333334,-0.28
610177,9.936111111111112,-0.275
610178,9.938888888888888,-0.265
610179,9.941666666666666,-0.27
610180,9.944444444444445,-0.285
610181,9.947222222222223,-0.31
610182,9.95,-0.315
610183,9.952777777777778,-0.31
610184,9.955555555555556,-0.3
610185,9.958333333333334,-0.285
610186,9.96111111111111,-0.275
610187,9.963888888888889,-0.28
610188,9.966666666666667,-0.29
610189,9.969444444444445,-0.285
610190,9.972222222222221,-0.275
610191,9.975,-0.265
610192,9.977777777777778,-0.265
610193,9.980555555555556,-0.26
610194,9.983333333333333,-0.27
610195,9.98611111111111,-0.27
610196,9.988888888888889,-0.27
610197,9.991666666666667,-0.255
610198,9.994444444444444,-0.25
610199,9.997222222222222,-0.26
