source_sample,relative_time_s,raw_MLII
612000,0.0,-0.13
612001,0.002777777777777778,-0.11
612002,0.005555555555555556,-0.08
612003,0.008333333333333333,-0.06
612004,0.011111111111111112,-0.035
612005,0.013888888888888888,-0.015
612006,0.016666666666666666,-0.01
612007,0.019444444444444445,-0.005
612008,0.022222222222222223,-0.005
612009,0.025,-0.025
612010,0.027777777777777776,-0.04
612011,0.030555555555555555,-0.04
612012,0.03333333333333333,-0.045
612013,0.03611111111111111,-0.035
612014,0.03888888888888889,-0.025
612015,0.041666666666666664,-0.025
612016,0.044444444444444446,-0.03
612017,0.04722222222222222,-0.055
612018,0.05,-0.065
612019,0.05277777777777778,-0.105
612020,0.05555555555555555,-0.135
612021,0.058333333333333334,-0.175
612022,0.06111111111111111,-0.19
612023,0.06388888888888888,-0.205
612024,0.06666666666666667,-0.22
612025,0.06944444444444445,-0.23
612026,0.07222222222222222,-0.235
612027,0.075,-0.245
612028,0.07777777777777778,-0.24
612029,0.08055555555555556,-0.235
612030,0.08333333333333333,-0.25
612031,0.08611111111111111,-0.27
612032,0.08888888888888889,-0.265
612033,0.09166666666666666,-0.28
612034,0.09444444444444444,-0.28
612035,0.09722222222222222,-0.285
612036,0.1,-0.28
612037,0.10277777777777777,-0.28
612038,0.10555555555555556,-0.285
612039,0.10833333333333334,-0.28
612040,0.1111111111111111,-0.275
612041,0.11388888888888889,-0.285
612042,0.11666666666666667,-0.295
612043,0.11944444444444445,-0.32
612044,0.12222222222222222,-0.325
612045,0.125,-0.325
612046,0.12777777777777777,-0.275
612047,0.13055555555555556,-0.195
612048,0.13333333333333333,-0.06
612049,0.1361111111111111,0.12
612050,0.1388888888888889,0.355
612051,0.14166666666666666,0.64
612052,0.14444444444444443,0.945
612053,0.14722222222222223,1.235
612054,0.15,1.49
612055,0.1527777777777778,1.66
612056,0.15555555555555556,1.715
612057,0.15833333333333333,1.63
612058,0.16111111111111112,1.415
612059,0.1638888888888889,1.11
612060,0.16666666666666666,0.78
612061,0.16944444444444445,0.45
612062,0.17222222222222222,0.17
612063,0.175,-0.02
612064,0.17777777777777778,-0.15
612065,0.18055555555555555,-0.225
612066,0.18333333333333332,-0.245
612067,0.18611111111111112,-0.25
612068,0.18888888888888888,-0.25
612069,0.19166666666666668,-0.24
612070,0.19444444444444445,-0.255
612071,0.19722222222222222,-0.265
612072,0.2,-0.305
612073,0.20277777777777778,-0.32
612074,0.20555555555555555,-0.345
612075,0.20833333333333334,-0.345
612076,0.2111111111111111,-0.355
612077,0.21388888888888888,-0.335
612078,0.21666666666666667,-0.345
612079,0.21944444444444444,-0.35
612080,0.2222222222222222,-0.36
612081,0.225,-0.375
612082,0.22777777777777777,-0.37
612083,0.23055555555555557,-0.365
612084,0.23333333333333334,-0.365
612085,0.2361111111111111,-0.37
612086,0.2388888888888889,-0.355
612087,0.24166666666666667,-0.36
612088,0.24444444444444444,-0.345
612089,0.24722222222222223,-0.345
612090,0.25,-0.35
612091,0.25277777777777777,-0.355
612092,0.25555555555555554,-0.36
612093,0.25833333333333336,-0.36
612094,0.2611111111111111,-0.355
612095,0.2638888888888889,-0.355
612096,0.26666666666666666,-0.345
612097,0.26944444444444443,-0.345
612098,0.2722222222222222,-0.335
612099,0.275,-0.32
612100,0.2777777777777778,-0.32
612101,0.28055555555555556,-0.315
612102,0.2833333333333333,-0.31
612103,0.2861111111111111,-0.32
612104,0.28888888888888886,-0.32
612105,0.2916666666666667,-0.33
612106,0.29444444444444445,-0.33
612107,0.2972222222222222,-0.33
612108,0.3,-0.31
612109,0.30277777777777776,-0.305
612110,0.3055555555555556,-0.28
612111,0.30833333333333335,-0.28
612112,0.3111111111111111,-0.275
612113,0.3138888888888889,-0.28
612114,0.31666666666666665,-0.285
612115,0.3194444444444444,-0.285
612116,0.32222222222222224,-0.275
612117,0.325,-0.275
612118,0.3277777777777778,-0.275
612119,0.33055555555555555,-0.265
612120,0.3333333333333333,-0.26
612121,0.33611111111111114,-0.255
612122,0.3388888888888889,-0.23
612123,0.3416666666666667,-0.225
612124,0.34444444444444444,-0.225
612125,0.3472222222222222,-0.225
612126,0.35,-0.22
612127,0.3527777777777778,-0.21
612128,0.35555555555555557,-0.215
612129,0.35833333333333334,-0.21
612130,0.3611111111111111,-0.215
612131,0.3638888888888889,-0.21
612132,0.36666666666666664,-0.195
612133,0.36944444444444446,-0.2
612134,0.37222222222222223,-0.185
612135,0.375,-0.175
612136,0.37777777777777777,-0.175
612137,0.38055555555555554,-0.18
612138,0.38333333333333336,-0.18
612139,0.3861111111111111,-0.185
612140,0.3888888888888889,-0.19
612141,0.39166666666666666,-0.195
612142,0.39444444444444443,-0.195
612143,0.3972222222222222,-0.19
612144,0.4,-0.2
612145,0.4027777777777778,-0.19
612146,0.40555555555555556,-0.18
612147,0.4083333333333333,-0.175
612148,0.4111111111111111,-0.165
612149,0.41388888888888886,-0.165
612150,0.4166666666666667,-0.165
612151,0.41944444444444445,-0.16
612152,0.4222222222222222,-0.15
612153,0.425,-0.15
612154,0.42777777777777776,-0.145
612155,0.4305555555555556,-0.14
612156,0.43333333333333335,-0.135
612157,0.4361111111111111,-0.14
612158,0.4388888888888889,-0.105
612159,0.44166666666666665,-0.105
612160,0.4444444444444444,-0.11
612161,0.44722222222222224,-0.125
612162,0.45,-0.145
612163,0.4527777777777778,-0.15
612164,0.45555555555555555,-0.16
612165,0.4583333333333333,-0.16
612166,0.46111111111111114,-0.165
612167,0.4638888888888889,-0.17
612168,0.4666666666666667,-0.16
612169,0.46944444444444444,-0.16
612170,0.4722222222222222,-0.15
612171,0.475,-0.145
612172,0.4777777777777778,-0.135
612173,0.48055555555555557,-0.16
612174,0.48333333333333334,-0.16
612175,0.4861111111111111,-0.17
612176,0.4888888888888889,-0.18
612177,0.49166666666666664,-0.17
612178,0.49444444444444446,-0.18
612179,0.49722222222222223,-0.175
612180,0.5,-0.175
612181,0.5027777777777778,-0.175
612182,0.5055555555555555,-0.175
612183,0.5083333333333333,-0.16
612184,0.5111111111111111,-0.16
612185,0.5138888888888888,-0.16
612186,0.5166666666666667,-0.165
612187,0.5194444444444445,-0.165
612188,0.5222222222222223,-0.165
612189,0.525,-0.17
612190,0.5277777777777778,-0.16
612191,0.5305555555555556,-0.165
612192,0.5333333333333333,-0.165
612193,0.5361111111111111,-0.165
612194,0.5388888888888889,-0.165
612195,0.5416666666666666,-0.16
612196,0.5444444444444444,-0.15
612197,0.5472222222222223,-0.14
612198,0.55,-0.14
612199,0.5527777777777778,-0.155
612200,0.5555555555555556,-0.17
612201,0.5583333333333333,-0.17
612202,0.5611111111111111,-0.17
612203,0.5638888888888889,-0.17
612204,0.5666666666666667,-0.165
612205,0.5694444444444444,-0.155
612206,0.5722222222222222,-0.15
612207,0.575,-0.14
612208,0.5777777777777777,-0.145
612209,0.5805555555555556,-0.14
612210,0.5833333333333334,-0.145
612211,0.5861111111111111,-0.15
612212,0.5888888888888889,-0.155
612213,0.5916666666666667,-0.16
612214,0.5944444444444444,-0.16
612215,0.5972222222222222,-0.165
612216,0.6,-0.16
612217,0.6027777777777777,-0.165
612218,0.6055555555555555,-0.16
612219,0.6083333333333333,-0.165
612220,0.6111111111111112,-0.14
612221,0.6138888888888889,-0.14
612222,0.6166666666666667,-0.135
612223,0.6194444444444445,-0.15
612224,0.6222222222222222,-0.15
612225,0.625,-0.16
612226,0.6277777777777778,-0.16
612227,0.6305555555555555,-0.15
612228,0.6333333333333333,-0.16
612229,0.6361111111111111,-0.15
612230,0.6388888888888888,-0.14
612231,0.6416666666666667,-0.13
612232,0.6444444444444445,-0.125
612233,0.6472222222222223,-0.11
612234,0.65,-0.11
612235,0.6527777777777778,-0.105
612236,0.6555555555555556,-0.105
612237,0.6583333333333333,-0.095
612238,0.6611111111111111,-0.07
612239,0.6638888888888889,-0.055
612240,0.6666666666666666,-0.045
612241,0.6694444444444444,-0.03
612242,0.6722222222222223,-0.015
612243,0.675,0.0
612244,0.6777777777777778,0.035
612245,0.6805555555555556,0.055
612246,0.6833333333333333,0.05
612247,0.6861111111111111,0.03
612248,0.6888888888888889,0.015
612249,0.6916666666666667,0.0
612250,0.6944444444444444,0.0
612251,0.6972222222222222,0.005
612252,0.7,0.005
612253,0.7027777777777777,0.0
612254,0.7055555555555556,-0.005
612255,0.7083333333333334,-0.025
612256,0.7111111111111111,-0.05
612257,0.7138888888888889,-0.07
612258,0.7166666666666667,-0.09
612259,0.7194444444444444,-0.12
612260,0.7222222222222222,-0.135
612261,0.725,-0.155
612262,0.7277777777777777,-0.17
612263,0.7305555555555555,-0.175
612264,0.7333333333333333,-0.19
612265,0.7361111111111112,-0.195
612266,0.7388888888888889,-0.205
612267,0.7416666666666667,-0.205
612268,0.7444444444444445,-0.225
612269,0.7472222222222222,-0.22
612270,0.75,-0.22
612271,0.7527777777777778,-0.23
612272,0.7555555555555555,-0.24
612273,0.7583333333333333,-0.25
612274,0.7611111111111111,-0.25
612275,0.7638888888888888,-0.25
612276,0.7666666666666667,-0.25
612277,0.7694444444444445,-0.235
612278,0.7722222222222223,-0.245
612279,0.775,-0.255
612280,0.7777777777777778,-0.265
612281,0.7805555555555556,-0.28
612282,0.7833333333333333,-0.295
612283,0.7861111111111111,-0.29
612284,0.7888888888888889,-0.275
612285,0.7916666666666666,-0.21
612286,0.7944444444444444,-0.105
612287,0.7972222222222223,0.045
612288,0.8,0.245
612289,0.8027777777777778,0.475
612290,0.8055555555555556,0.735
612291,0.8083333333333333,1.005
612292,0.8111111111111111,1.26
612293,0.8138888888888889,1.465
612294,0.8166666666666667,1.585
612295,0.8194444444444444,1.555
612296,0.8222222222222222,1.395
612297,0.825,1.14
612298,0.8277777777777777,0.83
612299,0.8305555555555556,0.495
612300,0.8333333333333334,0.22
612301,0.8361111111111111,0.02
612302,0.8388888888888889,-0.12
612303,0.8416666666666667,-0.215
612304,0.8444444444444444,-0.235
612305,0.8472222222222222,-0.245
612306,0.85,-0.24
612307,0.8527777777777777,-0.225
612308,0.8555555555555555,-0.225
612309,0.8583333333333333,-0.245
612310,0.8611111111111112,-0.265
612311,0.8638888888888889,-0.295
612312,0.8666666666666667,-0.31
612313,0.8694444444444445,-0.315
612314,0.8722222222222222,-0.32
612315,0.875,-0.33
612316,0.8777777777777778,-0.335
612317,0.8805555555555555,-0.34
612318,0.8833333333333333,-0.34
612319,0.8861111111111111,-0.34
612320,0.8888888888888888,-0.345
612321,0.8916666666666667,-0.35
612322,0.8944444444444445,-0.345
612323,0.8972222222222223,-0.345
612324,0.9,-0.335
612325,0.9027777777777778,-0.33
612326,0.9055555555555556,-0.335
612327,0.9083333333333333,-0.34
612328,0.9111111111111111,-0.345
612329,0.9138888888888889,-0.35
612330,0.9166666666666666,-0.36
612331,0.9194444444444444,-0.36
612332,0.9222222222222223,-0.35
612333,0.925,-0.36
612334,0.9277777777777778,-0.35
612335,0.9305555555555556,-0.355
612336,0.9333333333333333,-0.33
612337,0.9361111111111111,-0.33
612338,0.9388888888888889,-0.32
612339,0.9416666666666667,-0.325
612340,0.9444444444444444,-0.33
612341,0.9472222222222222,-0.325
612342,0.95,-0.33
612343,0.9527777777777777,-0.33
612344,0.9555555555555556,-0.33
612345,0.9583333333333334,-0.325
612346,0.9611111111111111,-0.335
612347,0.9638888888888889,-0.315
612348,0.9666666666666667,-0.31
612349,0.9694444444444444,-0.3
612350,0.9722222222222222,-0.295
612351,0.975,-0.29
612352,0.9777777777777777,-0.3
612353,0.9805555555555555,-0.3
612354,0.9833333333333333,-0.305
612355,0.9861111111111112,-0.295
612356,0.9888888888888889,-0.3
612357,0.9916666666666667,-0.305
612358,0.9944444444444445,-0.3
612359,0.9972222222222222,-0.295
612360,1.0,-0.275
612361,1.0027777777777778,-0.27
612362,1.0055555555555555,-0.25
612363,1.0083333333333333,-0.255
612364,1.011111111111111,-0.255
612365,1.0138888888888888,-0.26
612366,1.0166666666666666,-0.26
612367,1.0194444444444444,-0.265
612368,1.0222222222222221,-0.255
612369,1.025,-0.26
612370,1.0277777777777777,-0.26
612371,1.0305555555555554,-0.25
612372,1.0333333333333334,-0.225
612373,1.0361111111111112,-0.225
612374,1.038888888888889,-0.215
612375,1.0416666666666667,-0.225
612376,1.0444444444444445,-0.22
612377,1.0472222222222223,-0.22
612378,1.05,-0.23
612379,1.0527777777777778,-0.235
612380,1.0555555555555556,-0.225
612381,1.0583333333333333,-0.23
612382,1.0611111111111111,-0.23
612383,1.0638888888888889,-0.225
612384,1.0666666666666667,-0.22
612385,1.0694444444444444,-0.205
612386,1.0722222222222222,-0.205
612387,1.075,-0.205
612388,1.0777777777777777,-0.215
612389,1.0805555555555555,-0.205
612390,1.0833333333333333,-0.2
612391,1.086111111111111,-0.21
612392,1.0888888888888888,-0.205
612393,1.0916666666666666,-0.2
612394,1.0944444444444446,-0.19
612395,1.0972222222222223,-0.185
612396,1.1,-0.16
612397,1.1027777777777779,-0.155
612398,1.1055555555555556,-0.15
612399,1.1083333333333334,-0.16
612400,1.1111111111111112,-0.165
612401,1.113888888888889,-0.175
612402,1.1166666666666667,-0.16
612403,1.1194444444444445,-0.18
612404,1.1222222222222222,-0.19
612405,1.125,-0.185
612406,1.1277777777777778,-0.195
612407,1.1305555555555555,-0.19
612408,1.1333333333333333,-0.185
612409,1.136111111111111,-0.18
612410,1.1388888888888888,-0.175
612411,1.1416666666666666,-0.185
612412,1.1444444444444444,-0.19
612413,1.1472222222222221,-0.195
612414,1.15,-0.195
612415,1.1527777777777777,-0.195
612416,1.1555555555555554,-0.21
612417,1.1583333333333334,-0.205
612418,1.1611111111111112,-0.2
612419,1.163888888888889,-0.2
612420,1.1666666666666667,-0.19
612421,1.1694444444444445,-0.2
612422,1.1722222222222223,-0.195
612423,1.175,-0.195
612424,1.1777777777777778,-0.19
612425,1.1805555555555556,-0.19
612426,1.1833333333333333,-0.195
612427,1.1861111111111111,-0.2
612428,1.1888888888888889,-0.2
612429,1.1916666666666667,-0.19
612430,1.1944444444444444,-0.2
612431,1.1972222222222222,-0.195
612432,1.2,-0.18
612433,1.2027777777777777,-0.19
612434,1.2055555555555555,-0.195
612435,1.2083333333333333,-0.18
612436,1.211111111111111,-0.175
612437,1.2138888888888888,-0.185
612438,1.2166666666666666,-0.19
612439,1.2194444444444446,-0.205
612440,1.2222222222222223,-0.21
612441,1.225,-0.205
612442,1.2277777777777779,-0.195
612443,1.2305555555555556,-0.205
612444,1.2333333333333334,-0.18
612445,1.2361111111111112,-0.19
612446,1.238888888888889,-0.175
612447,1.2416666666666667,-0.175
612448,1.2444444444444445,-0.185
612449,1.2472222222222222,-0.18
612450,1.25,-0.2
612451,1.2527777777777778,-0.215
612452,1.2555555555555555,-0.195
612453,1.2583333333333333,-0.2
612454,1.261111111111111,-0.2
612455,1.2638888888888888,-0.2
612456,1.2666666666666666,-0.195
612457,1.2694444444444444,-0.21
612458,1.2722222222222221,-0.2
612459,1.275,-0.205
612460,1.2777777777777777,-0.205
612461,1.2805555555555554,-0.195
612462,1.2833333333333334,-0.2
612463,1.2861111111111112,-0.2
612464,1.288888888888889,-0.215
612465,1.2916666666666667,-0.2
612466,1.2944444444444445,-0.19
612467,1.2972222222222223,-0.19
612468,1.3,-0.18
612469,1.3027777777777778,-0.185
612470,1.3055555555555556,-0.175
612471,1.3083333333333333,-0.16
612472,1.3111111111111111,-0.145
612473,1.3138888888888889,-0.135
612474,1.3166666666666667,-0.135
612475,1.3194444444444444,-0.125
612476,1.3222222222222222,-0.12
612477,1.325,-0.085
612478,1.3277777777777777,-0.06
612479,1.3305555555555555,-0.035
612480,1.3333333333333333,-0.015
612481,1.336111111111111,-0.025
612482,1.3388888888888888,-0.02
612483,1.3416666666666666,-0.03
612484,1.3444444444444446,-0.045
612485,1.3472222222222223,-0.04
612486,1.35,-0.06
612487,1.3527777777777779,-0.075
612488,1.3555555555555556,-0.075
612489,1.3583333333333334,-0.08
612490,1.3611111111111112,-0.105
612491,1.363888888888889,-0.125
612492,1.3666666666666667,-0.155
612493,1.3694444444444445,-0.175
612494,1.3722222222222222,-0.19
612495,1.375,-0.195
612496,1.3777777777777778,-0.22
612497,1.3805555555555555,-0.24
612498,1.3833333333333333,-0.25
612499,1.386111111111111,-0.26
612500,1.3888888888888888,-0.26
612501,1.3916666666666666,-0.275
612502,1.3944444444444444,-0.28
612503,1.3972222222222221,-0.285
612504,1.4,-0.28
612505,1.4027777777777777,-0.285
612506,1.4055555555555554,-0.28
612507,1.4083333333333334,-0.285
612508,1.4111111111111112,-0.285
612509,1.413888888888889,-0.285
612510,1.4166666666666667,-0.285
612511,1.4194444444444445,-0.3
612512,1.4222222222222223,-0.305
612513,1.425,-0.32
612514,1.4277777777777778,-0.315
612515,1.4305555555555556,-0.315
612516,1.4333333333333333,-0.325
612517,1.4361111111111111,-0.335
612518,1.4388888888888889,-0.31
612519,1.4416666666666667,-0.25
612520,1.4444444444444444,-0.16
612521,1.4472222222222222,-0.02
612522,1.45,0.17
612523,1.4527777777777777,0.405
612524,1.4555555555555555,0.68
612525,1.4583333333333333,0.965
612526,1.461111111111111,1.23
612527,1.4638888888888888,1.445
612528,1.4666666666666666,1.54
612529,1.4694444444444446,1.505
612530,1.4722222222222223,1.34
612531,1.475,1.045
612532,1.4777777777777779,0.7
612533,1.4805555555555556,0.36
612534,1.4833333333333334,0.07
612535,1.4861111111111112,-0.135
612536,1.488888888888889,-0.26
612537,1.4916666666666667,-0.33
612538,1.4944444444444445,-0.33
612539,1.4972222222222222,-0.305
612540,1.5,-0.295
612541,1.5027777777777778,-0.275
612542,1.5055555555555555,-0.26
612543,1.5083333333333333,-0.28
612544,1.511111111111111,-0.31
612545,1.5138888888888888,-0.335
612546,1.5166666666666666,-0.365
612547,1.5194444444444444,-0.375
612548,1.5222222222222221,-0.395
612549,1.525,-0.395
612550,1.5277777777777777,-0.385
612551,1.5305555555555554,-0.38
612552,1.5333333333333334,-0.37
612553,1.5361111111111112,-0.38
612554,1.538888888888889,-0.385
612555,1.5416666666666667,-0.38
612556,1.5444444444444445,-0.385
612557,1.5472222222222223,-0.38
612558,1.55,-0.38
612559,1.5527777777777778,-0.39
612560,1.5555555555555556,-0.39
612561,1.5583333333333333,-0.395
612562,1.5611111111111111,-0.39
612563,1.5638888888888889,-0.395
612564,1.5666666666666667,-0.39
612565,1.5694444444444444,-0.395
612566,1.5722222222222222,-0.39
612567,1.575,-0.395
612568,1.5777777777777777,-0.39
612569,1.5805555555555555,-0.38
612570,1.5833333333333333,-0.38
612571,1.586111111111111,-0.38
612572,1.5888888888888888,-0.39
612573,1.5916666666666666,-0.39
612574,1.5944444444444446,-0.37
612575,1.5972222222222223,-0.37
612576,1.6,-0.36
612577,1.6027777777777779,-0.36
612578,1.6055555555555556,-0.355
612579,1.6083333333333334,-0.345
612580,1.6111111111111112,-0.345
612581,1.613888888888889,-0.35
612582,1.6166666666666667,-0.36
612583,1.6194444444444445,-0.355
612584,1.6222222222222222,-0.365
612585,1.625,-0.36
612586,1.6277777777777778,-0.35
612587,1.6305555555555555,-0.34
612588,1.6333333333333333,-0.335
612589,1.636111111111111,-0.33
612590,1.6388888888888888,-0.33
612591,1.6416666666666666,-0.325
612592,1.6444444444444444,-0.325
612593,1.6472222222222221,-0.33
612594,1.65,-0.32
612595,1.6527777777777777,-0.32
612596,1.6555555555555554,-0.33
612597,1.6583333333333334,-0.325
612598,1.6611111111111112,-0.305
612599,1.663888888888889,-0.295
612600,1.6666666666666667,-0.285
612601,1.6694444444444445,-0.285
612602,1.6722222222222223,-0.275
612603,1.675,-0.27
612604,1.6777777777777778,-0.27
612605,1.6805555555555556,-0.265
612606,1.6833333333333333,-0.26
612607,1.6861111111111111,-0.29
612608,1.6888888888888889,-0.28
612609,1.6916666666666667,-0.28
612610,1.6944444444444444,-0.265
612611,1.6972222222222222,-0.265
612612,1.7,-0.255
612613,1.7027777777777777,-0.25
612614,1.7055555555555555,-0.26
612615,1.7083333333333333,-0.255
612616,1.711111111111111,-0.26
612617,1.7138888888888888,-0.255
612618,1.7166666666666666,-0.26
612619,1.7194444444444446,-0.27
612620,1.7222222222222223,-0.265
612621,1.725,-0.275
612622,1.7277777777777779,-0.27
612623,1.7305555555555556,-0.255
612624,1.7333333333333334,-0.24
612625,1.7361111111111112,-0.225
612626,1.738888888888889,-0.215
612627,1.7416666666666667,-0.195
612628,1.7444444444444445,-0.2
612629,1.7472222222222222,-0.19
612630,1.75,-0.2
612631,1.7527777777777778,-0.195
612632,1.7555555555555555,-0.205
612633,1.7583333333333333,-0.21
612634,1.761111111111111,-0.21
612635,1.7638888888888888,-0.195
612636,1.7666666666666666,-0.21
612637,1.7694444444444444,-0.2
612638,1.7722222222222221,-0.21
612639,1.775,-0.205
612640,1.7777777777777777,-0.215
612641,1.7805555555555554,-0.225
612642,1.7833333333333334,-0.24
612643,1.7861111111111112,-0.25
612644,1.788888888888889,-0.255
612645,1.7916666666666667,-0.25
612646,1.7944444444444445,-0.25
612647,1.7972222222222223,-0.245
612648,1.8,-0.24
612649,1.8027777777777778,-0.235
612650,1.8055555555555556,-0.235
612651,1.8083333333333333,-0.23
612652,1.8111111111111111,-0.235
612653,1.8138888888888889,-0.25
612654,1.8166666666666667,-0.245
612655,1.8194444444444444,-0.265
612656,1.8222222222222222,-0.265
612657,1.825,-0.27
612658,1.8277777777777777,-0.255
612659,1.8305555555555555,-0.25
612660,1.8333333333333333,-0.23
612661,1.836111111111111,-0.23
612662,1.8388888888888888,-0.24
612663,1.8416666666666666,-0.24
612664,1.8444444444444446,-0.245
612665,1.8472222222222223,-0.25
612666,1.85,-0.25
612667,1.8527777777777779,-0.25
612668,1.8555555555555556,-0.26
612669,1.8583333333333334,-0.255
612670,1.8611111111111112,-0.245
612671,1.863888888888889,-0.245
612672,1.8666666666666667,-0.235
612673,1.8694444444444445,-0.225
612674,1.8722222222222222,-0.24
612675,1.875,-0.225
612676,1.8777777777777778,-0.23
612677,1.8805555555555555,-0.235
612678,1.8833333333333333,-0.245
612679,1.886111111111111,-0.26
612680,1.8888888888888888,-0.265
612681,1.8916666666666666,-0.265
612682,1.8944444444444444,-0.26
612683,1.8972222222222221,-0.255
612684,1.9,-0.245
612685,1.9027777777777777,-0.245
612686,1.9055555555555554,-0.24
612687,1.9083333333333334,-0.24
612688,1.9111111111111112,-0.24
612689,1.913888888888889,-0.245
612690,1.9166666666666667,-0.25
612691,1.9194444444444445,-0.245
612692,1.9222222222222223,-0.26
612693,1.925,-0.26
612694,1.9277777777777778,-0.255
612695,1.9305555555555556,-0.265
612696,1.9333333333333333,-0.26
612697,1.9361111111111111,-0.25
612698,1.9388888888888889,-0.245
612699,1.9416666666666667,-0.25
612700,1.9444444444444444,-0.24
612701,1.9472222222222222,-0.24
612702,1.95,-0.235
612703,1.9527777777777777,-0.23
612704,1.9555555555555555,-0.22
612705,1.9583333333333333,-0.21
612706,1.961111111111111,-0.205
612707,1.9638888888888888,-0.195
612708,1.9666666666666666,-0.185
612709,1.9694444444444446,-0.175
612710,1.9722222222222223,-0.14
612711,1.975,-0.12
612712,1.9777777777777779,-0.095
612713,1.9805555555555556,-0.065
612714,1.9833333333333334,-0.06
612715,1.9861111111111112,-0.055
612716,1.988888888888889,-0.08
612717,1.9916666666666667,-0.075
612718,1.9944444444444445,-0.085
612719,1.9972222222222222,-0.09
612720,2.0,-0.095
612721,2.0027777777777778,-0.095
612722,2.0055555555555555,-0.1
612723,2.0083333333333333,-0.12
612724,2.011111111111111,-0.15
612725,2.013888888888889,-0.175
612726,2.0166666666666666,-0.2
612727,2.0194444444444444,-0.22
612728,2.022222222222222,-0.24
612729,2.025,-0.275
612730,2.0277777777777777,-0.29
612731,2.0305555555555554,-0.285
612732,2.033333333333333,-0.295
612733,2.036111111111111,-0.29
612734,2.0388888888888888,-0.295
612735,2.0416666666666665,-0.295
612736,2.0444444444444443,-0.305
612737,2.047222222222222,-0.305
612738,2.05,-0.305
612739,2.0527777777777776,-0.305
612740,2.0555555555555554,-0.32
612741,2.058333333333333,-0.32
612742,2.061111111111111,-0.335
612743,2.063888888888889,-0.33
612744,2.066666666666667,-0.33
612745,2.0694444444444446,-0.33
612746,2.0722222222222224,-0.32
612747,2.075,-0.335
612748,2.077777777777778,-0.355
612749,2.0805555555555557,-0.345
612750,2.0833333333333335,-0.325
612751,2.0861111111111112,-0.265
612752,2.088888888888889,-0.17
612753,2.091666666666667,0.0
612754,2.0944444444444446,0.22
612755,2.0972222222222223,0.5
612756,2.1,0.805
612757,2.102777777777778,1.1
612758,2.1055555555555556,1.345
612759,2.1083333333333334,1.51
612760,2.111111111111111,1.565
612761,2.113888888888889,1.465
612762,2.1166666666666667,1.245
612763,2.1194444444444445,0.915
612764,2.1222222222222222,0.555
612765,2.125,0.215
612766,2.1277777777777778,-0.035
612767,2.1305555555555555,-0.215
612768,2.1333333333333333,-0.32
612769,2.136111111111111,-0.35
612770,2.138888888888889,-0.355
612771,2.1416666666666666,-0.34
612772,2.1444444444444444,-0.315
612773,2.147222222222222,-0.305
612774,2.15,-0.31
612775,2.1527777777777777,-0.355
612776,2.1555555555555554,-0.38
612777,2.158333333333333,-0.395
612778,2.161111111111111,-0.425
612779,2.1638888888888888,-0.42
612780,2.1666666666666665,-0.41
612781,2.1694444444444443,-0.41
612782,2.172222222222222,-0.405
612783,2.175,-0.41
612784,2.1777777777777776,-0.41
612785,2.1805555555555554,-0.405
612786,2.183333333333333,-0.43
612787,2.186111111111111,-0.43
612788,2.188888888888889,-0.435
612789,2.191666666666667,-0.435
612790,2.1944444444444446,-0.435
612791,2.1972222222222224,-0.415
612792,2.2,-0.415
612793,2.202777777777778,-0.395
612794,2.2055555555555557,-0.4
612795,2.2083333333333335,-0.4
612796,2.2111111111111112,-0.41
612797,2.213888888888889,-0.42
612798,2.216666666666667,-0.415
612799,2.2194444444444446,-0.42
612800,2.2222222222222223,-0.42
612801,2.225,-0.41
612802,2.227777777777778,-0.405
612803,2.2305555555555556,-0.41
612804,2.2333333333333334,-0.405
612805,2.236111111111111,-0.395
612806,2.238888888888889,-0.395
612807,2.2416666666666667,-0.405
612808,2.2444444444444445,-0.395
612809,2.2472222222222222,-0.38
612810,2.25,-0.38
612811,2.2527777777777778,-0.38
612812,2.2555555555555555,-0.375
612813,2.2583333333333333,-0.375
612814,2.261111111111111,-0.375
612815,2.263888888888889,-0.38
612816,2.2666666666666666,-0.36
612817,2.2694444444444444,-0.36
612818,2.272222222222222,-0.36
612819,2.275,-0.345
612820,2.2777777777777777,-0.355
612821,2.2805555555555554,-0.345
612822,2.283333333333333,-0.34
612823,2.286111111111111,-0.34
612824,2.2888888888888888,-0.34
612825,2.2916666666666665,-0.335
612826,2.2944444444444443,-0.32
612827,2.297222222222222,-0.33
612828,2.3,-0.335
612829,2.3027777777777776,-0.31
612830,2.3055555555555554,-0.31
612831,2.308333333333333,-0.295
612832,2.311111111111111,-0.295
612833,2.313888888888889,-0.29
612834,2.316666666666667,-0.29
612835,2.3194444444444446,-0.29
612836,2.3222222222222224,-0.295
612837,2.325,-0.3
612838,2.327777777777778,-0.305
612839,2.3305555555555557,-0.3
612840,2.3333333333333335,-0.3
612841,2.3361111111111112,-0.3
612842,2.338888888888889,-0.29
612843,2.341666666666667,-0.285
612844,2.3444444444444446,-0.295
612845,2.3472222222222223,-0.3
612846,2.35,-0.305
612847,2.352777777777778,-0.31
612848,2.3555555555555556,-0.31
612849,2.3583333333333334,-0.305
612850,2.361111111111111,-0.305
612851,2.363888888888889,-0.3
612852,2.3666666666666667,-0.28
612853,2.3694444444444445,-0.27
612854,2.3722222222222222,-0.255
612855,2.375,-0.235
612856,2.3777777777777778,-0.235
612857,2.3805555555555555,-0.235
612858,2.3833333333333333,-0.235
612859,2.386111111111111,-0.23
612860,2.388888888888889,-0.24
612861,2.3916666666666666,-0.235
612862,2.3944444444444444,-0.24
612863,2.397222222222222,-0.25
612864,2.4,-0.245
612865,2.4027777777777777,-0.245
612866,2.4055555555555554,-0.255
612867,2.408333333333333,-0.26
612868,2.411111111111111,-0.26
612869,2.4138888888888888,-0.26
612870,2.4166666666666665,-0.275
612871,2.4194444444444443,-0.28
612872,2.422222222222222,-0.295
612873,2.425,-0.275
612874,2.4277777777777776,-0.28
612875,2.4305555555555554,-0.28
612876,2.433333333333333,-0.285
612877,2.436111111111111,-0.28
612878,2.438888888888889,-0.265
612879,2.441666666666667,-0.255
612880,2.4444444444444446,-0.26
612881,2.4472222222222224,-0.265
612882,2.45,-0.265
612883,2.452777777777778,-0.275
612884,2.4555555555555557,-0.275
612885,2.4583333333333335,-0.265
612886,2.4611111111111112,-0.28
612887,2.463888888888889,-0.29
612888,2.466666666666667,-0.275
612889,2.4694444444444446,-0.275
612890,2.4722222222222223,-0.26
612891,2.475,-0.26
612892,2.477777777777778,-0.26
612893,2.4805555555555556,-0.275
612894,2.4833333333333334,-0.265
612895,2.486111111111111,-0.265
612896,2.488888888888889,-0.28
612897,2.4916666666666667,-0.27
612898,2.4944444444444445,-0.27
612899,2.4972222222222222,-0.26
612900,2.5,-0.26
612901,2.5027777777777778,-0.25
612902,2.5055555555555555,-0.245
612903,2.5083333333333333,-0.23
612904,2.511111111111111,-0.24
612905,2.513888888888889,-0.235
612906,2.5166666666666666,-0.25
612907,2.5194444444444444,-0.25
612908,2.522222222222222,-0.26
612909,2.525,-0.26
612910,2.5277777777777777,-0.26
612911,2.5305555555555554,-0.255
612912,2.533333333333333,-0.245
612913,2.536111111111111,-0.255
612914,2.5388888888888888,-0.25
612915,2.5416666666666665,-0.245
612916,2.5444444444444443,-0.23
612917,2.547222222222222,-0.23
612918,2.55,-0.235
612919,2.5527777777777776,-0.245
612920,2.5555555555555554,-0.245
612921,2.558333333333333,-0.255
612922,2.561111111111111,-0.245
612923,2.563888888888889,-0.245
612924,2.566666666666667,-0.245
612925,2.5694444444444446,-0.245
612926,2.5722222222222224,-0.25
612927,2.575,-0.24
612928,2.577777777777778,-0.24
612929,2.5805555555555557,-0.245
612930,2.5833333333333335,-0.25
612931,2.5861111111111112,-0.245
612932,2.588888888888889,-0.24
612933,2.591666666666667,-0.23
612934,2.5944444444444446,-0.22
612935,2.5972222222222223,-0.21
612936,2.6,-0.2
612937,2.602777777777778,-0.185
612938,2.6055555555555556,-0.17
612939,2.6083333333333334,-0.17
612940,2.611111111111111,-0.155
612941,2.613888888888889,-0.145
612942,2.6166666666666667,-0.14
612943,2.6194444444444445,-0.135
612944,2.6222222222222222,-0.1
612945,2.625,-0.08
612946,2.6277777777777778,-0.06
612947,2.6305555555555555,-0.065
612948,2.6333333333333333,-0.075
612949,2.636111111111111,-0.07
612950,2.638888888888889,-0.08
612951,2.6416666666666666,-0.08
612952,2.6444444444444444,-0.085
612953,2.647222222222222,-0.09
612954,2.65,-0.095
612955,2.6527777777777777,-0.115
612956,2.6555555555555554,-0.13
612957,2.658333333333333,-0.155
612958,2.661111111111111,-0.16
612959,2.6638888888888888,-0.19
612960,2.6666666666666665,-0.22
612961,2.6694444444444443,-0.23
612962,2.672222222222222,-0.255
612963,2.675,-0.265
612964,2.6777777777777776,-0.27
612965,2.6805555555555554,-0.28
612966,2.683333333333333,-0.295
612967,2.686111111111111,-0.32
612968,2.688888888888889,-0.32
612969,2.691666666666667,-0.32
612970,2.6944444444444446,-0.305
612971,2.6972222222222224,-0.32
612972,2.7,-0.32
612973,2.702777777777778,-0.33
612974,2.7055555555555557,-0.31
612975,2.7083333333333335,-0.31
612976,2.7111111111111112,-0.315
612977,2.713888888888889,-0.305
612978,2.716666666666667,-0.33
612979,2.7194444444444446,-0.34
612980,2.7222222222222223,-0.355
612981,2.725,-0.375
612982,2.727777777777778,-0.385
612983,2.7305555555555556,-0.36
612984,2.7333333333333334,-0.315
612985,2.736111111111111,-0.24
612986,2.738888888888889,-0.125
612987,2.7416666666666667,0.03
612988,2.7444444444444445,0.25
612989,2.7472222222222222,0.5
612990,2.75,0.775
612991,2.7527777777777778,1.05
612992,2.7555555555555555,1.275
612993,2.7583333333333333,1.46
612994,2.761111111111111,1.55
612995,2.763888888888889,1.5
612996,2.7666666666666666,1.32
612997,2.7694444444444444,1.045
612998,2.772222222222222,0.72
612999,2.775,0.385
613000,2.7777777777777777,0.105
613001,2.7805555555555554,-0.11
613002,2.783333333333333,-0.245
613003,2.786111111111111,-0.325
613004,2.7888888888888888,-0.35
613005,2.7916666666666665,-0.34
613006,2.7944444444444443,-0.315
613007,2.797222222222222,-0.29
613008,2.8,-0.285
613009,2.8027777777777776,-0.295
613010,2.8055555555555554,-0.31
613011,2.808333333333333,-0.34
613012,2.811111111111111,-0.365
613013,2.813888888888889,-0.385
613014,2.816666666666667,-0.395
613015,2.8194444444444446,-0.405
613016,2.8222222222222224,-0.405
613017,2.825,-0.405
613018,2.827777777777778,-0.4
613019,2.8305555555555557,-0.4
613020,2.8333333333333335,-0.38
613021,2.8361111111111112,-0.385
613022,2.838888888888889,-0.38
613023,2.841666666666667,-0.375
613024,2.8444444444444446,-0.38
613025,2.8472222222222223,-0.39
613026,2.85,-0.385
613027,2.852777777777778,-0.39
613028,2.8555555555555556,-0.41
613029,2.8583333333333334,-0.405
613030,2.861111111111111,-0.41
613031,2.863888888888889,-0.395
613032,2.8666666666666667,-0.37
613033,2.8694444444444445,-0.365
613034,2.8722222222222222,-0.365
613035,2.875,-0.38
613036,2.8777777777777778,-0.375
613037,2.8805555555555555,-0.365
613038,2.8833333333333333,-0.375
613039,2.886111111111111,-0.38
613040,2.888888888888889,-0.39
613041,2.8916666666666666,-0.4
613042,2.8944444444444444,-0.385
613043,2.897222222222222,-0.365
613044,2.9,-0.345
613045,2.9027777777777777,-0.345
613046,2.9055555555555554,-0.34
613047,2.908333333333333,-0.34
613048,2.911111111111111,-0.34
613049,2.9138888888888888,-0.33
613050,2.9166666666666665,-0.35
613051,2.9194444444444443,-0.36
613052,2.922222222222222,-0.35
613053,2.925,-0.355
613054,2.9277777777777776,-0.345
613055,2.9305555555555554,-0.345
613056,2.933333333333333,-0.325
613057,2.936111111111111,-0.325
613058,2.938888888888889,-0.31
613059,2.941666666666667,-0.32
613060,2.9444444444444446,-0.32
613061,2.9472222222222224,-0.32
613062,2.95,-0.32
613063,2.952777777777778,-0.315
613064,2.9555555555555557,-0.315
613065,2.9583333333333335,-0.32
613066,2.9611111111111112,-0.305
613067,2.963888888888889,-0.305
613068,2.966666666666667,-0.275
613069,2.9694444444444446,-0.27
613070,2.9722222222222223,-0.265
613071,2.975,-0.275
613072,2.977777777777778,-0.28
613073,2.9805555555555556,-0.275
613074,2.9833333333333334,-0.27
613075,2.986111111111111,-0.28
613076,2.988888888888889,-0.285
613077,2.9916666666666667,-0.285
613078,2.9944444444444445,-0.285
613079,2.9972222222222222,-0.265
613080,3.0,-0.255
613081,3.0027777777777778,-0.24
613082,3.0055555555555555,-0.235
613083,3.0083333333333333,-0.235
613084,3.011111111111111,-0.245
613085,3.013888888888889,-0.255
613086,3.0166666666666666,-0.25
613087,3.0194444444444444,-0.26
613088,3.022222222222222,-0.265
613089,3.025,-0.265
613090,3.0277777777777777,-0.27
613091,3.0305555555555554,-0.275
613092,3.033333333333333,-0.26
613093,3.036111111111111,-0.245
613094,3.0388888888888888,-0.21
613095,3.0416666666666665,-0.195
613096,3.0444444444444443,-0.195
613097,3.047222222222222,-0.18
613098,3.05,-0.2
613099,3.0527777777777776,-0.215
613100,3.0555555555555554,-0.215
613101,3.058333333333333,-0.225
613102,3.061111111111111,-0.225
613103,3.063888888888889,-0.215
613104,3.066666666666667,-0.2
613105,3.0694444444444446,-0.2
613106,3.0722222222222224,-0.19
613107,3.075,-0.19
613108,3.077777777777778,-0.2
613109,3.0805555555555557,-0.215
613110,3.0833333333333335,-0.225
613111,3.0861111111111112,-0.24
613112,3.088888888888889,-0.25
613113,3.091666666666667,-0.25
613114,3.0944444444444446,-0.265
613115,3.0972222222222223,-0.26
613116,3.1,-0.24
613117,3.102777777777778,-0.23
613118,3.1055555555555556,-0.215
613119,3.1083333333333334,-0.215
613120,3.111111111111111,-0.21
613121,3.113888888888889,-0.21
613122,3.1166666666666667,-0.22
613123,3.1194444444444445,-0.22
613124,3.1222222222222222,-0.235
613125,3.125,-0.235
613126,3.1277777777777778,-0.23
613127,3.1305555555555555,-0.245
613128,3.1333333333333333,-0.24
613129,3.136111111111111,-0.235
613130,3.138888888888889,-0.205
613131,3.1416666666666666,-0.19
613132,3.1444444444444444,-0.19
613133,3.147222222222222,-0.19
613134,3.15,-0.205
613135,3.1527777777777777,-0.21
613136,3.1555555555555554,-0.215
613137,3.158333333333333,-0.225
613138,3.161111111111111,-0.22
613139,3.1638888888888888,-0.225
613140,3.1666666666666665,-0.22
613141,3.1694444444444443,-0.22
613142,3.172222222222222,-0.205
613143,3.175,-0.195
613144,3.1777777777777776,-0.19
613145,3.1805555555555554,-0.185
613146,3.183333333333333,-0.205
613147,3.186111111111111,-0.215
613148,3.188888888888889,-0.235
613149,3.191666666666667,-0.215
613150,3.1944444444444446,-0.2
613151,3.1972222222222224,-0.215
613152,3.2,-0.205
613153,3.202777777777778,-0.2
613154,3.2055555555555557,-0.185
613155,3.2083333333333335,-0.18
613156,3.2111111111111112,-0.175
613157,3.213888888888889,-0.185
613158,3.216666666666667,-0.19
613159,3.2194444444444446,-0.2
613160,3.2222222222222223,-0.21
613161,3.225,-0.225
613162,3.227777777777778,-0.22
613163,3.2305555555555556,-0.215
613164,3.2333333333333334,-0.22
613165,3.236111111111111,-0.21
613166,3.238888888888889,-0.215
613167,3.2416666666666667,-0.205
613168,3.2444444444444445,-0.205
613169,3.2472222222222222,-0.19
613170,3.25,-0.195
613171,3.2527777777777778,-0.21
613172,3.2555555555555555,-0.21
613173,3.2583333333333333,-0.215
613174,3.261111111111111,-0.215
613175,3.263888888888889,-0.195
613176,3.2666666666666666,-0.185
613177,3.2694444444444444,-0.17
613178,3.272222222222222,-0.16
613179,3.275,-0.155
613180,3.2777777777777777,-0.15
613181,3.2805555555555554,-0.135
613182,3.283333333333333,-0.125
613183,3.286111111111111,-0.12
613184,3.2888888888888888,-0.125
613185,3.2916666666666665,-0.125
613186,3.2944444444444443,-0.12
613187,3.297222222222222,-0.095
613188,3.3,-0.06
613189,3.3027777777777776,-0.035
613190,3.3055555555555554,-0.025
613191,3.308333333333333,-0.035
613192,3.311111111111111,-0.035
613193,3.313888888888889,-0.04
613194,3.316666666666667,-0.04
613195,3.3194444444444446,-0.05
613196,3.3222222222222224,-0.06
613197,3.325,-0.07
613198,3.327777777777778,-0.08
613199,3.3305555555555557,-0.09
613200,3.3333333333333335,-0.095
613201,3.3361111111111112,-0.115
613202,3.338888888888889,-0.14
613203,3.341666666666667,-0.155
613204,3.3444444444444446,-0.19
613205,3.3472222222222223,-0.2
613206,3.35,-0.22
613207,3.352777777777778,-0.235
613208,3.3555555555555556,-0.255
613209,3.3583333333333334,-0.27
613210,3.361111111111111,-0.285
613211,3.363888888888889,-0.295
613212,3.3666666666666667,-0.285
613213,3.3694444444444445,-0.275
613214,3.3722222222222222,-0.275
613215,3.375,-0.285
613216,3.3777777777777778,-0.295
613217,3.3805555555555555,-0.285
613218,3.3833333333333333,-0.295
613219,3.386111111111111,-0.295
613220,3.388888888888889,-0.28
613221,3.3916666666666666,-0.29
613222,3.3944444444444444,-0.295
613223,3.397222222222222,-0.295
613224,3.4,-0.31
613225,3.4027777777777777,-0.3
613226,3.4055555555555554,-0.31
613227,3.408333333333333,-0.32
613228,3.411111111111111,-0.335
613229,3.4138888888888888,-0.31
613230,3.4166666666666665,-0.255
613231,3.4194444444444443,-0.16
613232,3.422222222222222,-0.03
613233,3.425,0.14
613234,3.4277777777777776,0.375
613235,3.4305555555555554,0.62
613236,3.433333333333333,0.88
613237,3.436111111111111,1.15
613238,3.438888888888889,1.375
613239,3.441666666666667,1.53
613240,3.4444444444444446,1.555
613241,3.4472222222222224,1.465
613242,3.45,1.265
613243,3.452777777777778,0.985
613244,3.4555555555555557,0.675
613245,3.4583333333333335,0.365
613246,3.4611111111111112,0.12
613247,3.463888888888889,-0.06
613248,3.466666666666667,-0.175
613249,3.4694444444444446,-0.25
613250,3.4722222222222223,-0.25
613251,3.475,-0.235
613252,3.477777777777778,-0.24
613253,3.4805555555555556,-0.26
613254,3.4833333333333334,-0.265
613255,3.486111111111111,-0.27
613256,3.488888888888889,-0.305
613257,3.4916666666666667,-0.325
613258,3.4944444444444445,-0.345
613259,3.4972222222222222,-0.36
613260,3.5,-0.365
613261,3.5027777777777778,-0.37
613262,3.5055555555555555,-0.36
613263,3.5083333333333333,-0.35
613264,3.511111111111111,-0.355
613265,3.513888888888889,-0.37
613266,3.5166666666666666,-0.38
613267,3.5194444444444444,-0.375
613268,3.522222222222222,-0.385
613269,3.525,-0.39
613270,3.5277777777777777,-0.38
613271,3.5305555555555554,-0.38
613272,3.533333333333333,-0.375
613273,3.536111111111111,-0.365
613274,3.5388888888888888,-0.36
613275,3.5416666666666665,-0.36
613276,3.5444444444444443,-0.365
613277,3.547222222222222,-0.37
613278,3.55,-0.365
613279,3.5527777777777776,-0.375
613280,3.5555555555555554,-0.37
613281,3.558333333333333,-0.375
613282,3.561111111111111,-0.37
613283,3.563888888888889,-0.36
613284,3.566666666666667,-0.365
613285,3.5694444444444446,-0.36
613286,3.5722222222222224,-0.35
613287,3.575,-0.345
613288,3.577777777777778,-0.355
613289,3.5805555555555557,-0.35
613290,3.5833333333333335,-0.355
613291,3.5861111111111112,-0.365
613292,3.588888888888889,-0.365
613293,3.591666666666667,-0.365
613294,3.5944444444444446,-0.36
613295,3.5972222222222223,-0.36
613296,3.6,-0.345
613297,3.602777777777778,-0.34
613298,3.6055555555555556,-0.32
613299,3.6083333333333334,-0.32
613300,3.611111111111111,-0.34
613301,3.613888888888889,-0.325
613302,3.6166666666666667,-0.33
613303,3.6194444444444445,-0.345
613304,3.6222222222222222,-0.34
613305,3.625,-0.34
613306,3.6277777777777778,-0.33
613307,3.6305555555555555,-0.335
613308,3.6333333333333333,-0.315
613309,3.636111111111111,-0.31
613310,3.638888888888889,-0.305
613311,3.6416666666666666,-0.295
613312,3.6444444444444444,-0.295
613313,3.647222222222222,-0.285
613314,3.65,-0.295
613315,3.6527777777777777,-0.29
613316,3.6555555555555554,-0.29
613317,3.658333333333333,-0.28
613318,3.661111111111111,-0.275
613319,3.6638888888888888,-0.265
613320,3.6666666666666665,-0.27
613321,3.6694444444444443,-0.26
613322,3.672222222222222,-0.25
613323,3.675,-0.25
613324,3.6777777777777776,-0.255
613325,3.6805555555555554,-0.26
613326,3.683333333333333,-0.265
613327,3.686111111111111,-0.27
613328,3.688888888888889,-0.275
613329,3.691666666666667,-0.275
613330,3.6944444444444446,-0.27
613331,3.6972222222222224,-0.26
613332,3.7,-0.25
613333,3.702777777777778,-0.25
613334,3.7055555555555557,-0.24
613335,3.7083333333333335,-0.235
613336,3.7111111111111112,-0.215
613337,3.713888888888889,-0.21
613338,3.716666666666667,-0.225
613339,3.7194444444444446,-0.22
613340,3.7222222222222223,-0.21
613341,3.725,-0.2
613342,3.727777777777778,-0.185
613343,3.7305555555555556,-0.18
613344,3.7333333333333334,-0.175
613345,3.736111111111111,-0.185
613346,3.738888888888889,-0.18
613347,3.7416666666666667,-0.18
613348,3.7444444444444445,-0.175
613349,3.7472222222222222,-0.195
613350,3.75,-0.2
613351,3.7527777777777778,-0.215
613352,3.7555555555555555,-0.215
613353,3.7583333333333333,-0.22
613354,3.761111111111111,-0.23
613355,3.763888888888889,-0.23
613356,3.7666666666666666,-0.22
613357,3.7694444444444444,-0.22
613358,3.772222222222222,-0.205
613359,3.775,-0.215
613360,3.7777777777777777,-0.22
613361,3.7805555555555554,-0.23
613362,3.783333333333333,-0.23
613363,3.786111111111111,-0.24
613364,3.7888888888888888,-0.235
613365,3.7916666666666665,-0.24
613366,3.7944444444444443,-0.235
613367,3.797222222222222,-0.23
613368,3.8,-0.23
613369,3.8027777777777776,-0.22
613370,3.8055555555555554,-0.22
613371,3.808333333333333,-0.215
613372,3.811111111111111,-0.215
613373,3.813888888888889,-0.22
613374,3.816666666666667,-0.22
613375,3.8194444444444446,-0.225
613376,3.8222222222222224,-0.225
613377,3.825,-0.225
613378,3.827777777777778,-0.22
613379,3.8305555555555557,-0.215
613380,3.8333333333333335,-0.21
613381,3.8361111111111112,-0.22
613382,3.838888888888889,-0.2
613383,3.841666666666667,-0.195
613384,3.8444444444444446,-0.2
613385,3.8472222222222223,-0.2
613386,3.85,-0.21
613387,3.852777777777778,-0.22
613388,3.8555555555555556,-0.22
613389,3.8583333333333334,-0.215
613390,3.861111111111111,-0.21
613391,3.863888888888889,-0.21
613392,3.8666666666666667,-0.205
613393,3.8694444444444445,-0.2
613394,3.8722222222222222,-0.19
613395,3.875,-0.185
613396,3.8777777777777778,-0.19
613397,3.8805555555555555,-0.21
613398,3.8833333333333333,-0.22
613399,3.886111111111111,-0.225
613400,3.888888888888889,-0.23
613401,3.8916666666666666,-0.225
613402,3.8944444444444444,-0.22
613403,3.897222222222222,-0.22
613404,3.9,-0.215
613405,3.9027777777777777,-0.215
613406,3.9055555555555554,-0.21
613407,3.908333333333333,-0.205
613408,3.911111111111111,-0.21
613409,3.9138888888888888,-0.22
613410,3.9166666666666665,-0.225
613411,3.9194444444444443,-0.22
613412,3.922222222222222,-0.22
613413,3.925,-0.22
613414,3.9277777777777776,-0.21
613415,3.9305555555555554,-0.205
613416,3.933333333333333,-0.185
613417,3.936111111111111,-0.175
613418,3.938888888888889,-0.165
613419,3.941666666666667,-0.16
613420,3.9444444444444446,-0.15
613421,3.9472222222222224,-0.145
613422,3.95,-0.13
613423,3.952777777777778,-0.12
613424,3.9555555555555557,-0.1
613425,3.9583333333333335,-0.08
613426,3.9611111111111112,-0.06
613427,3.963888888888889,-0.045
613428,3.966666666666667,-0.04
613429,3.9694444444444446,-0.05
613430,3.9722222222222223,-0.045
613431,3.975,-0.055
613432,3.977777777777778,-0.065
613433,3.9805555555555556,-0.065
613434,3.9833333333333334,-0.08
613435,3.986111111111111,-0.08
613436,3.988888888888889,-0.105
613437,3.9916666666666667,-0.135
613438,3.9944444444444445,-0.16
613439,3.9972222222222222,-0.19
613440,4.0,-0.18
613441,4.002777777777778,-0.205
613442,4.0055555555555555,-0.215
613443,4.008333333333334,-0.215
613444,4.011111111111111,-0.235
613445,4.013888888888889,-0.245
613446,4.016666666666667,-0.245
613447,4.019444444444445,-0.26
613448,4.022222222222222,-0.265
613449,4.025,-0.26
613450,4.027777777777778,-0.27
613451,4.030555555555556,-0.28
613452,4.033333333333333,-0.28
613453,4.036111111111111,-0.27
613454,4.038888888888889,-0.26
613455,4.041666666666667,-0.27
613456,4.044444444444444,-0.285
613457,4.0472222222222225,-0.295
613458,4.05,-0.29
613459,4.052777777777778,-0.295
613460,4.055555555555555,-0.3
613461,4.058333333333334,-0.34
613462,4.061111111111111,-0.355
613463,4.063888888888889,-0.35
613464,4.066666666666666,-0.345
613465,4.069444444444445,-0.295
613466,4.072222222222222,-0.21
613467,4.075,-0.11
613468,4.0777777777777775,0.03
613469,4.080555555555556,0.23
613470,4.083333333333333,0.475
613471,4.086111111111111,0.76
613472,4.088888888888889,1.03
613473,4.091666666666667,1.285
613474,4.094444444444444,1.47
613475,4.097222222222222,1.545
613476,4.1,1.49
613477,4.102777777777778,1.31
613478,4.105555555555555,1.035
613479,4.108333333333333,0.7
613480,4.111111111111111,0.365
613481,4.113888888888889,0.075
613482,4.116666666666666,-0.135
613483,4.1194444444444445,-0.25
613484,4.122222222222222,-0.3
613485,4.125,-0.32
613486,4.127777777777778,-0.3
613487,4.1305555555555555,-0.285
613488,4.133333333333334,-0.27
613489,4.136111111111111,-0.265
613490,4.138888888888889,-0.27
613491,4.141666666666667,-0.29
613492,4.144444444444445,-0.325
613493,4.147222222222222,-0.345
613494,4.15,-0.38
613495,4.152777777777778,-0.38
613496,4.155555555555556,-0.39
613497,4.158333333333333,-0.39
613498,4.161111111111111,-0.385
613499,4.163888888888889,-0.38
613500,4.166666666666667,-0.375
613501,4.169444444444444,-0.37
613502,4.1722222222222225,-0.355
613503,4.175,-0.355
613504,4.177777777777778,-0.36
613505,4.180555555555555,-0.37
613506,4.183333333333334,-0.385
613507,4.186111111111111,-0.405
613508,4.188888888888889,-0.405
613509,4.191666666666666,-0.405
613510,4.194444444444445,-0.395
613511,4.197222222222222,-0.395
613512,4.2,-0.38
613513,4.2027777777777775,-0.365
613514,4.205555555555556,-0.355
613515,4.208333333333333,-0.35
613516,4.211111111111111,-0.36
613517,4.213888888888889,-0.365
613518,4.216666666666667,-0.37
613519,4.219444444444444,-0.38
613520,4.222222222222222,-0.395
613521,4.225,-0.395
613522,4.227777777777778,-0.38
613523,4.230555555555555,-0.38
613524,4.233333333333333,-0.38
613525,4.236111111111111,-0.37
613526,4.238888888888889,-0.355
613527,4.241666666666666,-0.34
613528,4.2444444444444445,-0.33
613529,4.247222222222222,-0.335
613530,4.25,-0.345
613531,4.252777777777778,-0.345
613532,4.2555555555555555,-0.365
613533,4.258333333333334,-0.365
613534,4.261111111111111,-0.355
613535,4.263888888888889,-0.345
613536,4.266666666666667,-0.33
613537,4.269444444444445,-0.33
613538,4.272222222222222,-0.31
613539,4.275,-0.305
613540,4.277777777777778,-0.305
613541,4.280555555555556,-0.3
613542,4.283333333333333,-0.305
613543,4.286111111111111,-0.305
613544,4.288888888888889,-0.305
613545,4.291666666666667,-0.305
613546,4.294444444444444,-0.305
613547,4.2972222222222225,-0.295
613548,4.3,-0.285
613549,4.302777777777778,-0.27
613550,4.305555555555555,-0.265
613551,4.308333333333334,-0.265
613552,4.311111111111111,-0.245
613553,4.313888888888889,-0.25
613554,4.316666666666666,-0.25
613555,4.319444444444445,-0.265
613556,4.322222222222222,-0.26
613557,4.325,-0.27
613558,4.3277777777777775,-0.27
613559,4.330555555555556,-0.26
613560,4.333333333333333,-0.25
613561,4.336111111111111,-0.235
613562,4.338888888888889,-0.22
613563,4.341666666666667,-0.235
613564,4.344444444444444,-0.245
613565,4.347222222222222,-0.245
613566,4.35,-0.25
613567,4.352777777777778,-0.245
613568,4.355555555555555,-0.26
613569,4.358333333333333,-0.265
613570,4.361111111111111,-0.26
613571,4.363888888888889,-0.25
613572,4.366666666666666,-0.235
613573,4.3694444444444445,-0.215
613574,4.372222222222222,-0.205
613575,4.375,-0.185
613576,4.377777777777778,-0.175
613577,4.3805555555555555,-0.16
613578,4.383333333333334,-0.16
613579,4.386111111111111,-0.175
613580,4.388888888888889,-0.185
613581,4.391666666666667,-0.185
613582,4.394444444444445,-0.19
613583,4.397222222222222,-0.185
613584,4.4,-0.185
613585,4.402777777777778,-0.18
613586,4.405555555555556,-0.18
613587,4.408333333333333,-0.18
613588,4.411111111111111,-0.18
613589,4.413888888888889,-0.18
613590,4.416666666666667,-0.195
613591,4.419444444444444,-0.205
613592,4.4222222222222225,-0.235
613593,4.425,-0.23
613594,4.427777777777778,-0.225
613595,4.430555555555555,-0.22
613596,4.433333333333334,-0.215
613597,4.436111111111111,-0.21
613598,4.438888888888889,-0.225
613599,4.441666666666666,-0.21
613600,4.444444444444445,-0.205
613601,4.447222222222222,-0.2
613602,4.45,-0.205
613603,4.4527777777777775,-0.215
613604,4.455555555555556,-0.225
613605,4.458333333333333,-0.23
613606,4.461111111111111,-0.23
613607,4.463888888888889,-0.225
613608,4.466666666666667,-0.22
613609,4.469444444444444,-0.205
613610,4.472222222222222,-0.195
613611,4.475,-0.205
613612,4.477777777777778,-0.205
613613,4.480555555555555,-0.195
613614,4.483333333333333,-0.19
613615,4.486111111111111,-0.2
613616,4.488888888888889,-0.21
613617,4.491666666666666,-0.215
613618,4.4944444444444445,-0.215
613619,4.497222222222222,-0.205
613620,4.5,-0.205
613621,4.502777777777778,-0.2
613622,4.5055555555555555,-0.195
613623,4.508333333333334,-0.19
613624,4.511111111111111,-0.19
613625,4.513888888888889,-0.18
613626,4.516666666666667,-0.185
613627,4.519444444444445,-0.19
613628,4.522222222222222,-0.19
613629,4.525,-0.19
613630,4.527777777777778,-0.195
613631,4.530555555555556,-0.195
613632,4.533333333333333,-0.2
613633,4.536111111111111,-0.2
613634,4.538888888888889,-0.205
613635,4.541666666666667,-0.18
613636,4.544444444444444,-0.17
613637,4.5472222222222225,-0.18
613638,4.55,-0.18
613639,4.552777777777778,-0.185
613640,4.555555555555555,-0.2
613641,4.558333333333334,-0.205
613642,4.561111111111111,-0.205
613643,4.563888888888889,-0.205
613644,4.566666666666666,-0.19
613645,4.569444444444445,-0.185
613646,4.572222222222222,-0.18
613647,4.575,-0.175
613648,4.5777777777777775,-0.165
613649,4.580555555555556,-0.175
613650,4.583333333333333,-0.195
613651,4.586111111111111,-0.185
613652,4.588888888888889,-0.175
613653,4.591666666666667,-0.175
613654,4.594444444444444,-0.17
613655,4.597222222222222,-0.16
613656,4.6,-0.15
613657,4.602777777777778,-0.125
613658,4.605555555555555,-0.095
613659,4.608333333333333,-0.075
613660,4.611111111111111,-0.05
613661,4.613888888888889,-0.03
613662,4.616666666666666,-0.02
613663,4.6194444444444445,-0.015
613664,4.622222222222222,-0.02
613665,4.625,-0.02
613666,4.627777777777778,-0.05
613667,4.6305555555555555,-0.055
613668,4.633333333333334,-0.04
613669,4.636111111111111,-0.02
613670,4.638888888888889,-0.02
613671,4.641666666666667,-0.01
613672,4.644444444444445,-0.03
613673,4.647222222222222,-0.045
613674,4.65,-0.08
613675,4.652777777777778,-0.11
613676,4.655555555555556,-0.14
613677,4.658333333333333,-0.175
613678,4.661111111111111,-0.205
613679,4.663888888888889,-0.215
613680,4.666666666666667,-0.22
613681,4.669444444444444,-0.215
613682,4.6722222222222225,-0.215
613683,4.675,-0.22
613684,4.677777777777778,-0.215
613685,4.680555555555555,-0.225
613686,4.683333333333334,-0.24
613687,4.686111111111111,-0.255
613688,4.688888888888889,-0.265
613689,4.691666666666666,-0.275
613690,4.694444444444445,-0.285
613691,4.697222222222222,-0.28
613692,4.7,-0.285
613693,4.7027777777777775,-0.265
613694,4.705555555555556,-0.255
613695,4.708333333333333,-0.245
613696,4.711111111111111,-0.26
613697,4.713888888888889,-0.27
613698,4.716666666666667,-0.275
613699,4.719444444444444,-0.25
613700,4.722222222222222,-0.19
613701,4.725,-0.095
613702,4.727777777777778,0.075
613703,4.730555555555555,0.315
613704,4.733333333333333,0.615
613705,4.736111111111111,0.95
613706,4.738888888888889,1.28
613707,4.741666666666666,1.55
613708,4.7444444444444445,1.665
613709,4.747222222222222,1.645
613710,4.75,1.45
613711,4.752777777777778,1.13
613712,4.7555555555555555,0.735
613713,4.758333333333334,0.325
613714,4.761111111111111,0.005
613715,4.763888888888889,-0.2
613716,4.766666666666667,-0.315
613717,4.769444444444445,-0.345
613718,4.772222222222222,-0.31
613719,4.775,-0.265
613720,4.777777777777778,-0.225
613721,4.780555555555556,-0.22
613722,4.783333333333333,-0.245
613723,4.786111111111111,-0.275
613724,4.788888888888889,-0.315
613725,4.791666666666667,-0.345
613726,4.794444444444444,-0.36
613727,4.7972222222222225,-0.36
613728,4.8,-0.35
613729,4.802777777777778,-0.345
613730,4.805555555555555,-0.34
613731,4.808333333333334,-0.325
613732,4.811111111111111,-0.325
613733,4.813888888888889,-0.325
613734,4.816666666666666,-0.345
613735,4.819444444444445,-0.35
613736,4.822222222222222,-0.375
613737,4.825,-0.375
613738,4.8277777777777775,-0.365
613739,4.830555555555556,-0.355
613740,4.833333333333333,-0.345
613741,4.836111111111111,-0.345
613742,4.838888888888889,-0.34
613743,4.841666666666667,-0.335
613744,4.844444444444444,-0.34
613745,4.847222222222222,-0.335
613746,4.85,-0.35
613747,4.852777777777778,-0.355
613748,4.855555555555555,-0.355
613749,4.858333333333333,-0.355
613750,4.861111111111111,-0.35
613751,4.863888888888889,-0.355
613752,4.866666666666666,-0.34
613753,4.8694444444444445,-0.335
613754,4.872222222222222,-0.33
613755,4.875,-0.315
613756,4.877777777777778,-0.31
613757,4.8805555555555555,-0.305
613758,4.883333333333334,-0.32
613759,4.886111111111111,-0.32
613760,4.888888888888889,-0.33
613761,4.891666666666667,-0.34
613762,4.894444444444445,-0.325
613763,4.897222222222222,-0.325
613764,4.9,-0.325
613765,4.902777777777778,-0.325
613766,4.905555555555556,-0.305
613767,4.908333333333333,-0.285
613768,4.911111111111111,-0.28
613769,4.913888888888889,-0.28
613770,4.916666666666667,-0.295
613771,4.919444444444444,-0.295
613772,4.9222222222222225,-0.295
613773,4.925,-0.295
613774,4.927777777777778,-0.27
613775,4.930555555555555,-0.26
613776,4.933333333333334,-0.26
613777,4.936111111111111,-0.25
613778,4.938888888888889,-0.245
613779,4.941666666666666,-0.235
613780,4.944444444444445,-0.24
613781,4.947222222222222,-0.24
613782,4.95,-0.245
613783,4.9527777777777775,-0.245
613784,4.955555555555556,-0.25
613785,4.958333333333333,-0.245
613786,4.961111111111111,-0.24
613787,4.963888888888889,-0.245
613788,4.966666666666667,-0.24
613789,4.969444444444444,-0.235
613790,4.972222222222222,-0.24
613791,4.975,-0.235
613792,4.977777777777778,-0.235
613793,4.980555555555555,-0.24
613794,4.983333333333333,-0.26
613795,4.986111111111111,-0.255
613796,4.988888888888889,-0.27
613797,4.991666666666666,-0.265
613798,4.9944444444444445,-0.26
613799,4.997222222222222,-0.245
613800,5.0,-0.225
613801,5.002777777777778,-0.22
613802,5.0055555555555555,-0.215
613803,5.008333333333334,-0.2
613804,5.011111111111111,-0.195
613805,5.013888888888889,-0.195
613806,5.016666666666667,-0.195
613807,5.019444444444445,-0.19
613808,5.022222222222222,-0.2
613809,5.025,-0.2
613810,5.027777777777778,-0.205
613811,5.030555555555556,-0.205
613812,5.033333333333333,-0.195
613813,5.036111111111111,-0.205
613814,5.038888888888889,-0.195
613815,5.041666666666667,-0.19
613816,5.044444444444444,-0.195
613817,5.0472222222222225,-0.185
613818,5.05,-0.195
613819,5.052777777777778,-0.215
613820,5.055555555555555,-0.23
613821,5.058333333333334,-0.23
613822,5.061111111111111,-0.235
613823,5.063888888888889,-0.245
613824,5.066666666666666,-0.235
613825,5.069444444444445,-0.23
613826,5.072222222222222,-0.23
613827,5.075,-0.23
613828,5.0777777777777775,-0.235
613829,5.080555555555556,-0.225
613830,5.083333333333333,-0.23
613831,5.086111111111111,-0.245
613832,5.088888888888889,-0.26
613833,5.091666666666667,-0.26
613834,5.094444444444444,-0.26
613835,5.097222222222222,-0.24
613836,5.1,-0.215
613837,5.102777777777778,-0.205
613838,5.105555555555555,-0.205
613839,5.108333333333333,-0.2
613840,5.111111111111111,-0.215
613841,5.113888888888889,-0.22
613842,5.116666666666666,-0.22
613843,5.1194444444444445,-0.215
613844,5.122222222222222,-0.23
613845,5.125,-0.24
613846,5.127777777777778,-0.245
613847,5.1305555555555555,-0.245
613848,5.133333333333334,-0.215
613849,5.136111111111111,-0.205
613850,5.138888888888889,-0.19
613851,5.141666666666667,-0.18
613852,5.144444444444445,-0.19
613853,5.147222222222222,-0.195
613854,5.15,-0.2
613855,5.152777777777778,-0.21
613856,5.155555555555556,-0.23
613857,5.158333333333333,-0.24
613858,5.161111111111111,-0.225
613859,5.163888888888889,-0.21
613860,5.166666666666667,-0.2
613861,5.169444444444444,-0.19
613862,5.1722222222222225,-0.185
613863,5.175,-0.19
613864,5.177777777777778,-0.185
613865,5.180555555555555,-0.19
613866,5.183333333333334,-0.195
613867,5.186111111111111,-0.195
613868,5.188888888888889,-0.215
613869,5.191666666666666,-0.22
613870,5.194444444444445,-0.22
613871,5.197222222222222,-0.215
613872,5.2,-0.21
613873,5.2027777777777775,-0.21
613874,5.205555555555556,-0.2
613875,5.208333333333333,-0.2
613876,5.211111111111111,-0.205
613877,5.213888888888889,-0.195
613878,5.216666666666667,-0.205
613879,5.219444444444444,-0.21
613880,5.222222222222222,-0.22
613881,5.225,-0.215
613882,5.227777777777778,-0.2
613883,5.230555555555555,-0.195
613884,5.233333333333333,-0.17
613885,5.236111111111111,-0.155
613886,5.238888888888889,-0.145
613887,5.241666666666666,-0.13
613888,5.2444444444444445,-0.13
613889,5.247222222222222,-0.115
613890,5.25,-0.12
613891,5.252777777777778,-0.125
613892,5.2555555555555555,-0.115
613893,5.258333333333334,-0.1
613894,5.261111111111111,-0.08
613895,5.263888888888889,-0.045
613896,5.266666666666667,-0.035
613897,5.269444444444445,-0.035
613898,5.272222222222222,-0.035
613899,5.275,-0.045
613900,5.277777777777778,-0.04
613901,5.280555555555556,-0.045
613902,5.283333333333333,-0.045
613903,5.286111111111111,-0.07
613904,5.288888888888889,-0.095
613905,5.291666666666667,-0.125
613906,5.294444444444444,-0.14
613907,5.2972222222222225,-0.16
613908,5.3,-0.2
613909,5.302777777777778,-0.22
613910,5.305555555555555,-0.215
613911,5.308333333333334,-0.225
613912,5.311111111111111,-0.22
613913,5.313888888888889,-0.24
613914,5.316666666666666,-0.26
613915,5.319444444444445,-0.27
613916,5.322222222222222,-0.28
613917,5.325,-0.285
613918,5.3277777777777775,-0.275
613919,5.330555555555556,-0.285
613920,5.333333333333333,-0.29
613921,5.336111111111111,-0.295
613922,5.338888888888889,-0.3
613923,5.341666666666667,-0.29
613924,5.344444444444444,-0.285
613925,5.347222222222222,-0.27
613926,5.35,-0.285
613927,5.352777777777778,-0.29
613928,5.355555555555555,-0.325
613929,5.358333333333333,-0.32
613930,5.361111111111111,-0.32
613931,5.363888888888889,-0.31
613932,5.366666666666666,-0.285
613933,5.3694444444444445,-0.23
613934,5.372222222222222,-0.125
613935,5.375,0.02
613936,5.377777777777778,0.225
613937,5.3805555555555555,0.49
613938,5.383333333333334,0.795
613939,5.386111111111111,1.105
613940,5.388888888888889,1.385
613941,5.391666666666667,1.57
613942,5.394444444444445,1.63
613943,5.397222222222222,1.545
613944,5.4,1.31
613945,5.402777777777778,0.98
613946,5.405555555555556,0.63
613947,5.408333333333333,0.3
613948,5.411111111111111,0.02
613949,5.413888888888889,-0.165
613950,5.416666666666667,-0.27
613951,5.419444444444444,-0.32
613952,5.4222222222222225,-0.32
613953,5.425,-0.295
613954,5.427777777777778,-0.27
613955,5.430555555555555,-0.255
613956,5.433333333333334,-0.27
613957,5.436111111111111,-0.315
613958,5.438888888888889,-0.33
613959,5.441666666666666,-0.335
613960,5.444444444444445,-0.345
613961,5.447222222222222,-0.36
613962,5.45,-0.37
613963,5.4527777777777775,-0.37
613964,5.455555555555556,-0.37
613965,5.458333333333333,-0.38
613966,5.461111111111111,-0.38
613967,5.463888888888889,-0.375
613968,5.466666666666667,-0.38
613969,5.469444444444444,-0.39
613970,5.472222222222222,-0.39
613971,5.475,-0.37
613972,5.477777777777778,-0.37
613973,5.480555555555555,-0.37
613974,5.483333333333333,-0.37
613975,5.486111111111111,-0.375
613976,5.488888888888889,-0.38
613977,5.491666666666666,-0.375
613978,5.4944444444444445,-0.365
613979,5.497222222222222,-0.375
613980,5.5,-0.375
613981,5.502777777777778,-0.375
613982,5.5055555555555555,-0.37
613983,5.508333333333334,-0.36
613984,5.511111111111111,-0.36
613985,5.513888888888889,-0.355
613986,5.516666666666667,-0.36
613987,5.519444444444445,-0.36
613988,5.522222222222222,-0.365
613989,5.525,-0.365
613990,5.527777777777778,-0.365
613991,5.530555555555556,-0.36
613992,5.533333333333333,-0.36
613993,5.536111111111111,-0.355
613994,5.538888888888889,-0.36
613995,5.541666666666667,-0.35
613996,5.544444444444444,-0.35
613997,5.5472222222222225,-0.35
613998,5.55,-0.34
613999,5.552777777777778,-0.35
614000,5.555555555555555,-0.355
614001,5.558333333333334,-0.35
614002,5.561111111111111,-0.335
614003,5.563888888888889,-0.345
614004,5.566666666666666,-0.33
614005,5.569444444444445,-0.32
614006,5.572222222222222,-0.315
614007,5.575,-0.315
614008,5.5777777777777775,-0.31
614009,5.580555555555556,-0.295
614010,5.583333333333333,-0.295
614011,5.586111111111111,-0.285
614012,5.588888888888889,-0.295
614013,5.591666666666667,-0.295
614014,5.594444444444444,-0.29
614015,5.597222222222222,-0.29
614016,5.6,-0.285
614017,5.602777777777778,-0.29
614018,5.605555555555555,-0.285
614019,5.608333333333333,-0.275
614020,5.611111111111111,-0.275
614021,5.613888888888889,-0.255
614022,5.616666666666666,-0.265
614023,5.6194444444444445,-0.27
614024,5.622222222222222,-0.28
614025,5.625,-0.275
614026,5.627777777777778,-0.265
614027,5.6305555555555555,-0.26
614028,5.633333333333334,-0.25
614029,5.636111111111111,-0.26
614030,5.638888888888889,-0.26
614031,5.641666666666667,-0.265
614032,5.644444444444445,-0.265
614033,5.647222222222222,-0.265
614034,5.65,-0.255
614035,5.652777777777778,-0.255
614036,5.655555555555556,-0.26
614037,5.658333333333333,-0.26
614038,5.661111111111111,-0.25
614039,5.663888888888889,-0.23
614040,5.666666666666667,-0.22
614041,5.669444444444444,-0.21
614042,5.6722222222222225,-0.195
614043,5.675,-0.19
614044,5.677777777777778,-0.185
614045,5.680555555555555,-0.185
614046,5.683333333333334,-0.185
614047,5.686111111111111,-0.195
614048,5.688888888888889,-0.195
614049,5.691666666666666,-0.2
614050,5.694444444444445,-0.2
614051,5.697222222222222,-0.205
614052,5.7,-0.2
614053,5.7027777777777775,-0.19
614054,5.705555555555556,-0.195
614055,5.708333333333333,-0.215
614056,5.711111111111111,-0.225
614057,5.713888888888889,-0.225
614058,5.716666666666667,-0.22
614059,5.719444444444444,-0.22
614060,5.722222222222222,-0.235
614061,5.725,-0.235
614062,5.727777777777778,-0.235
614063,5.730555555555555,-0.23
614064,5.733333333333333,-0.215
614065,5.736111111111111,-0.22
614066,5.738888888888889,-0.21
614067,5.741666666666666,-0.215
614068,5.7444444444444445,-0.22
614069,5.747222222222222,-0.21
614070,5.75,-0.22
614071,5.752777777777778,-0.225
614072,5.7555555555555555,-0.23
614073,5.758333333333334,-0.245
614074,5.761111111111111,-0.225
614075,5.763888888888889,-0.235
614076,5.766666666666667,-0.23
614077,5.769444444444445,-0.22
614078,5.772222222222222,-0.2
614079,5.775,-0.2
614080,5.777777777777778,-0.215
614081,5.780555555555556,-0.23
614082,5.783333333333333,-0.225
614083,5.786111111111111,-0.23
614084,5.788888888888889,-0.225
614085,5.791666666666667,-0.23
614086,5.794444444444444,-0.24
614087,5.7972222222222225,-0.24
614088,5.8,-0.215
614089,5.802777777777778,-0.21
614090,5.805555555555555,-0.19
614091,5.808333333333334,-0.18
614092,5.811111111111111,-0.2
614093,5.813888888888889,-0.205
614094,5.816666666666666,-0.21
614095,5.819444444444445,-0.21
614096,5.822222222222222,-0.205
614097,5.825,-0.21
614098,5.8277777777777775,-0.215
614099,5.830555555555556,-0.22
614100,5.833333333333333,-0.23
614101,5.836111111111111,-0.205
614102,5.838888888888889,-0.2
614103,5.841666666666667,-0.19
614104,5.844444444444444,-0.2
614105,5.847222222222222,-0.205
614106,5.85,-0.215
614107,5.852777777777778,-0.23
614108,5.855555555555555,-0.23
614109,5.858333333333333,-0.23
614110,5.861111111111111,-0.22
614111,5.863888888888889,-0.225
614112,5.866666666666666,-0.215
614113,5.8694444444444445,-0.21
614114,5.872222222222222,-0.2
614115,5.875,-0.18
614116,5.877777777777778,-0.195
614117,5.8805555555555555,-0.2
614118,5.883333333333334,-0.205
614119,5.886111111111111,-0.215
614120,5.888888888888889,-0.215
614121,5.891666666666667,-0.21
614122,5.894444444444445,-0.215
614123,5.897222222222222,-0.205
614124,5.9,-0.195
614125,5.902777777777778,-0.17
614126,5.905555555555556,-0.155
614127,5.908333333333333,-0.13
614128,5.911111111111111,-0.115
614129,5.913888888888889,-0.105
614130,5.916666666666667,-0.105
614131,5.919444444444444,-0.115
614132,5.9222222222222225,-0.105
614133,5.925,-0.08
614134,5.927777777777778,-0.06
614135,5.930555555555555,-0.045
614136,5.933333333333334,-0.025
614137,5.936111111111111,-0.025
614138,5.938888888888889,-0.015
614139,5.941666666666666,-0.01
614140,5.944444444444445,-0.025
614141,5.947222222222222,-0.025
614142,5.95,-0.035
614143,5.9527777777777775,-0.055
614144,5.955555555555556,-0.06
614145,5.958333333333333,-0.095
614146,5.961111111111111,-0.115
614147,5.963888888888889,-0.135
614148,5.966666666666667,-0.145
614149,5.969444444444444,-0.175
614150,5.972222222222222,-0.175
614151,5.975,-0.185
614152,5.977777777777778,-0.2
614153,5.980555555555555,-0.21
614154,5.983333333333333,-0.23
614155,5.986111111111111,-0.26
614156,5.988888888888889,-0.255
614157,5.991666666666666,-0.27
614158,5.9944444444444445,-0.27
614159,5.997222222222222,-0.265
614160,6.0,-0.27
614161,6.002777777777778,-0.27
614162,6.0055555555555555,-0.255
614163,6.008333333333334,-0.255
614164,6.011111111111111,-0.255
614165,6.013888888888889,-0.27
614166,6.016666666666667,-0.285
614167,6.019444444444445,-0.285
614168,6.022222222222222,-0.305
614169,6.025,-0.315
614170,6.027777777777778,-0.31
614171,6.030555555555556,-0.315
614172,6.033333333333333,-0.3
614173,6.036111111111111,-0.23
614174,6.038888888888889,-0.13
614175,6.041666666666667,0.005
614176,6.044444444444444,0.18
614177,6.0472222222222225,0.405
614178,6.05,0.655
614179,6.052777777777778,0.935
614180,6.055555555555555,1.215
614181,6.058333333333334,1.445
614182,6.061111111111111,1.565
614183,6.063888888888889,1.545
614184,6.066666666666666,1.38
614185,6.069444444444445,1.1
614186,6.072222222222222,0.785
614187,6.075,0.455
614188,6.0777777777777775,0.14
614189,6.080555555555556,-0.08
614190,6.083333333333333,-0.24
614191,6.086111111111111,-0.305
614192,6.088888888888889,-0.31
614193,6.091666666666667,-0.295
614194,6.094444444444444,-0.265
614195,6.097222222222222,-0.255
614196,6.1,-0.255
614197,6.102777777777778,-0.28
614198,6.105555555555555,-0.29
614199,6.108333333333333,-0.31
614200,6.111111111111111,-0.34
614201,6.113888888888889,-0.355
614202,6.116666666666666,-0.365
614203,6.1194444444444445,-0.37
614204,6.122222222222222,-0.365
614205,6.125,-0.38
614206,6.127777777777778,-0.38
614207,6.1305555555555555,-0.385
614208,6.133333333333334,-0.38
614209,6.136111111111111,-0.36
614210,6.138888888888889,-0.345
614211,6.141666666666667,-0.355
614212,6.144444444444445,-0.35
614213,6.147222222222222,-0.355
614214,6.15,-0.36
614215,6.152777777777778,-0.36
614216,6.155555555555556,-0.37
614217,6.158333333333333,-0.37
614218,6.161111111111111,-0.37
614219,6.163888888888889,-0.36
614220,6.166666666666667,-0.36
614221,6.169444444444444,-0.345
614222,6.1722222222222225,-0.34
614223,6.175,-0.335
614224,6.177777777777778,-0.33
614225,6.180555555555555,-0.34
614226,6.183333333333334,-0.34
614227,6.186111111111111,-0.345
614228,6.188888888888889,-0.35
614229,6.191666666666666,-0.35
614230,6.194444444444445,-0.34
614231,6.197222222222222,-0.33
614232,6.2,-0.315
614233,6.2027777777777775,-0.305
614234,6.205555555555556,-0.305
614235,6.208333333333333,-0.305
614236,6.211111111111111,-0.305
614237,6.213888888888889,-0.32
614238,6.216666666666667,-0.315
614239,6.219444444444444,-0.31
614240,6.222222222222222,-0.315
614241,6.225,-0.33
614242,6.227777777777778,-0.32
614243,6.230555555555555,-0.305
614244,6.233333333333333,-0.28
614245,6.236111111111111,-0.275
614246,6.238888888888889,-0.265
614247,6.241666666666666,-0.26
614248,6.2444444444444445,-0.265
614249,6.247222222222222,-0.265
614250,6.25,-0.265
614251,6.252777777777778,-0.26
614252,6.2555555555555555,-0.27
614253,6.258333333333334,-0.265
614254,6.261111111111111,-0.26
614255,6.263888888888889,-0.245
614256,6.266666666666667,-0.23
614257,6.269444444444445,-0.22
614258,6.272222222222222,-0.215
614259,6.275,-0.215
614260,6.277777777777778,-0.225
614261,6.280555555555556,-0.22
614262,6.283333333333333,-0.24
614263,6.286111111111111,-0.23
614264,6.288888888888889,-0.235
614265,6.291666666666667,-0.245
614266,6.294444444444444,-0.245
614267,6.2972222222222225,-0.235
614268,6.3,-0.22
614269,6.302777777777778,-0.22
614270,6.305555555555555,-0.225
614271,6.308333333333334,-0.22
614272,6.311111111111111,-0.22
614273,6.313888888888889,-0.23
614274,6.316666666666666,-0.24
614275,6.319444444444445,-0.225
614276,6.322222222222222,-0.215
614277,6.325,-0.22
614278,6.3277777777777775,-0.205
614279,6.330555555555556,-0.185
614280,6.333333333333333,-0.17
614281,6.336111111111111,-0.15
614282,6.338888888888889,-0.16
614283,6.341666666666667,-0.165
614284,6.344444444444444,-0.175
614285,6.347222222222222,-0.16
614286,6.35,-0.165
614287,6.352777777777778,-0.18
614288,6.355555555555555,-0.19
614289,6.358333333333333,-0.205
614290,6.361111111111111,-0.2
614291,6.363888888888889,-0.2
614292,6.366666666666666,-0.195
614293,6.3694444444444445,-0.185
614294,6.372222222222222,-0.19
614295,6.375,-0.205
614296,6.377777777777778,-0.2
614297,6.3805555555555555,-0.215
614298,6.383333333333334,-0.22
614299,6.386111111111111,-0.225
614300,6.388888888888889,-0.235
614301,6.391666666666667,-0.245
614302,6.394444444444445,-0.23
614303,6.397222222222222,-0.235
614304,6.4,-0.22
614305,6.402777777777778,-0.21
614306,6.405555555555556,-0.215
614307,6.408333333333333,-0.21
614308,6.411111111111111,-0.21
614309,6.413888888888889,-0.215
614310,6.416666666666667,-0.21
614311,6.419444444444444,-0.21
614312,6.4222222222222225,-0.215
614313,6.425,-0.225
614314,6.427777777777778,-0.23
614315,6.430555555555555,-0.22
614316,6.433333333333334,-0.205
614317,6.436111111111111,-0.205
614318,6.438888888888889,-0.195
614319,6.441666666666666,-0.195
614320,6.444444444444445,-0.205
614321,6.447222222222222,-0.21
614322,6.45,-0.215
614323,6.4527777777777775,-0.225
614324,6.455555555555556,-0.235
614325,6.458333333333333,-0.23
614326,6.461111111111111,-0.225
614327,6.463888888888889,-0.225
614328,6.466666666666667,-0.21
614329,6.469444444444444,-0.205
614330,6.472222222222222,-0.21
614331,6.475,-0.215
614332,6.477777777777778,-0.21
614333,6.480555555555555,-0.22
614334,6.483333333333333,-0.21
614335,6.486111111111111,-0.235
614336,6.488888888888889,-0.235
614337,6.491666666666666,-0.235
614338,6.4944444444444445,-0.23
614339,6.497222222222222,-0.22
614340,6.5,-0.205
614341,6.502777777777778,-0.19
614342,6.5055555555555555,-0.19
614343,6.508333333333334,-0.185
614344,6.511111111111111,-0.205
614345,6.513888888888889,-0.215
614346,6.516666666666667,-0.22
614347,6.519444444444445,-0.22
614348,6.522222222222222,-0.225
614349,6.525,-0.235
614350,6.527777777777778,-0.225
614351,6.530555555555556,-0.225
614352,6.533333333333333,-0.205
614353,6.536111111111111,-0.2
614354,6.538888888888889,-0.18
614355,6.541666666666667,-0.175
614356,6.544444444444444,-0.175
614357,6.5472222222222225,-0.175
614358,6.55,-0.175
614359,6.552777777777778,-0.19
614360,6.555555555555555,-0.16
614361,6.558333333333334,-0.165
614362,6.561111111111111,-0.15
614363,6.563888888888889,-0.135
614364,6.566666666666666,-0.11
614365,6.569444444444445,-0.08
614366,6.572222222222222,-0.055
614367,6.575,-0.035
614368,6.5777777777777775,-0.015
614369,6.580555555555556,-0.01
614370,6.583333333333333,-0.025
614371,6.586111111111111,-0.04
614372,6.588888888888889,-0.045
614373,6.591666666666667,-0.07
614374,6.594444444444444,-0.075
614375,6.597222222222222,-0.075
614376,6.6,-0.075
614377,6.602777777777778,-0.065
614378,6.605555555555555,-0.06
614379,6.608333333333333,-0.07
614380,6.611111111111111,-0.09
614381,6.613888888888889,-0.125
614382,6.616666666666666,-0.165
614383,6.6194444444444445,-0.19
614384,6.622222222222222,-0.215
614385,6.625,-0.235
614386,6.627777777777778,-0.245
614387,6.6305555555555555,-0.26
614388,6.633333333333334,-0.275
614389,6.636111111111111,-0.265
614390,6.638888888888889,-0.26
614391,6.641666666666667,-0.26
614392,6.644444444444445,-0.26
614393,6.647222222222222,-0.27
614394,6.65,-0.28
614395,6.652777777777778,-0.3
614396,6.655555555555556,-0.305
614397,6.658333333333333,-0.315
614398,6.661111111111111,-0.305
614399,6.663888888888889,-0.305
614400,6.666666666666667,-0.31
614401,6.669444444444444,-0.315
614402,6.6722222222222225,-0.315
614403,6.675,-0.305
614404,6.677777777777778,-0.285
614405,6.680555555555555,-0.31
614406,6.683333333333334,-0.34
614407,6.686111111111111,-0.355
614408,6.688888888888889,-0.365
614409,6.691666666666666,-0.33
614410,6.694444444444445,-0.27
614411,6.697222222222222,-0.145
614412,6.7,-0.005
614413,6.7027777777777775,0.185
614414,6.705555555555556,0.42
614415,6.708333333333333,0.68
614416,6.711111111111111,0.945
614417,6.713888888888889,1.21
614418,6.716666666666667,1.405
614419,6.719444444444444,1.485
614420,6.722222222222222,1.44
614421,6.725,1.28
614422,6.727777777777778,1.035
614423,6.730555555555555,0.73
614424,6.733333333333333,0.43
614425,6.736111111111111,0.16
614426,6.738888888888889,-0.06
614427,6.741666666666666,-0.19
614428,6.7444444444444445,-0.27
614429,6.747222222222222,-0.295
614430,6.75,-0.29
614431,6.752777777777778,-0.28
614432,6.7555555555555555,-0.28
614433,6.758333333333334,-0.295
614434,6.761111111111111,-0.31
614435,6.763888888888889,-0.325
614436,6.766666666666667,-0.36
614437,6.769444444444445,-0.375
614438,6.772222222222222,-0.385
614439,6.775,-0.385
614440,6.777777777777778,-0.385
614441,6.780555555555556,-0.37
614442,6.783333333333333,-0.365
614443,6.786111111111111,-0.37
614444,6.788888888888889,-0.38
614445,6.791666666666667,-0.395
614446,6.794444444444444,-0.395
614447,6.7972222222222225,-0.41
614448,6.8,-0.395
614449,6.802777777777778,-0.4
614450,6.805555555555555,-0.405
614451,6.808333333333334,-0.39
614452,6.811111111111111,-0.39
614453,6.813888888888889,-0.39
614454,6.816666666666666,-0.375
614455,6.819444444444445,-0.38
614456,6.822222222222222,-0.395
614457,6.825,-0.395
614458,6.8277777777777775,-0.405
614459,6.830555555555556,-0.4
614460,6.833333333333333,-0.395
614461,6.836111111111111,-0.385
614462,6.838888888888889,-0.37
614463,6.841666666666667,-0.365
614464,6.844444444444444,-0.365
614465,6.847222222222222,-0.365
614466,6.85,-0.36
614467,6.852777777777778,-0.35
614468,6.855555555555555,-0.355
614469,6.858333333333333,-0.37
614470,6.861111111111111,-0.39
614471,6.863888888888889,-0.375
614472,6.866666666666666,-0.365
614473,6.8694444444444445,-0.365
614474,6.872222222222222,-0.365
614475,6.875,-0.35
614476,6.877777777777778,-0.365
614477,6.8805555555555555,-0.345
614478,6.883333333333334,-0.35
614479,6.886111111111111,-0.345
614480,6.888888888888889,-0.345
614481,6.891666666666667,-0.345
614482,6.894444444444445,-0.36
614483,6.897222222222222,-0.35
614484,6.9,-0.33
614485,6.902777777777778,-0.335
614486,6.905555555555556,-0.335
614487,6.908333333333333,-0.32
614488,6.911111111111111,-0.325
614489,6.913888888888889,-0.3
614490,6.916666666666667,-0.3
614491,6.919444444444444,-0.295
614492,6.9222222222222225,-0.3
614493,6.925,-0.315
614494,6.927777777777778,-0.32
614495,6.930555555555555,-0.315
614496,6.933333333333334,-0.305
614497,6.936111111111111,-0.295
614498,6.938888888888889,-0.285
614499,6.941666666666666,-0.28
614500,6.944444444444445,-0.28
614501,6.947222222222222,-0.28
614502,6.95,-0.27
614503,6.9527777777777775,-0.265
614504,6.955555555555556,-0.29
614505,6.958333333333333,-0.3
614506,6.961111111111111,-0.275
614507,6.963888888888889,-0.285
614508,6.966666666666667,-0.275
614509,6.969444444444444,-0.27
614510,6.972222222222222,-0.275
614511,6.975,-0.265
614512,6.977777777777778,-0.27
614513,6.980555555555555,-0.265
614514,6.983333333333333,-0.245
614515,6.986111111111111,-0.24
614516,6.988888888888889,-0.24
614517,6.991666666666666,-0.23
614518,6.9944444444444445,-0.235
614519,6.997222222222222,-0.225
614520,7.0,-0.22
614521,7.002777777777778,-0.215
614522,7.0055555555555555,-0.21
614523,7.008333333333334,-0.205
614524,7.011111111111111,-0.2
614525,7.013888888888889,-0.195
614526,7.016666666666667,-0.195
614527,7.019444444444445,-0.215
614528,7.022222222222222,-0.23
614529,7.025,-0.22
614530,7.027777777777778,-0.225
614531,7.030555555555556,-0.235
614532,7.033333333333333,-0.225
614533,7.036111111111111,-0.235
614534,7.038888888888889,-0.24
614535,7.041666666666667,-0.245
614536,7.044444444444444,-0.245
614537,7.0472222222222225,-0.245
614538,7.05,-0.245
614539,7.052777777777778,-0.25
614540,7.055555555555555,-0.26
614541,7.058333333333334,-0.265
614542,7.061111111111111,-0.26
614543,7.063888888888889,-0.25
614544,7.066666666666666,-0.25
614545,7.069444444444445,-0.26
614546,7.072222222222222,-0.265
614547,7.075,-0.25
614548,7.0777777777777775,-0.255
614549,7.080555555555556,-0.24
614550,7.083333333333333,-0.235
614551,7.086111111111111,-0.245
614552,7.088888888888889,-0.245
614553,7.091666666666667,-0.245
614554,7.094444444444444,-0.245
614555,7.097222222222222,-0.24
614556,7.1,-0.245
614557,7.102777777777778,-0.23
614558,7.105555555555555,-0.235
614559,7.108333333333333,-0.24
614560,7.111111111111111,-0.24
614561,7.113888888888889,-0.25
614562,7.116666666666666,-0.24
614563,7.1194444444444445,-0.245
614564,7.122222222222222,-0.245
614565,7.125,-0.245
614566,7.127777777777778,-0.24
614567,7.1305555555555555,-0.24
614568,7.133333333333334,-0.225
614569,7.136111111111111,-0.23
614570,7.138888888888889,-0.245
614571,7.141666666666667,-0.24
614572,7.144444444444445,-0.235
614573,7.147222222222222,-0.24
614574,7.15,-0.23
614575,7.152777777777778,-0.235
614576,7.155555555555556,-0.23
614577,7.158333333333333,-0.24
614578,7.161111111111111,-0.245
614579,7.163888888888889,-0.235
614580,7.166666666666667,-0.24
614581,7.169444444444444,-0.235
614582,7.1722222222222225,-0.24
614583,7.175,-0.245
614584,7.177777777777778,-0.245
614585,7.180555555555555,-0.24
614586,7.183333333333334,-0.245
614587,7.186111111111111,-0.25
614588,7.188888888888889,-0.24
614589,7.191666666666666,-0.27
614590,7.194444444444445,-0.255
614591,7.197222222222222,-0.265
614592,7.2,-0.255
614593,7.2027777777777775,-0.23
614594,7.205555555555556,-0.23
614595,7.208333333333333,-0.225
614596,7.211111111111111,-0.215
614597,7.213888888888889,-0.21
614598,7.216666666666667,-0.205
614599,7.219444444444444,-0.195
614600,7.222222222222222,-0.195
614601,7.225,-0.185
614602,7.227777777777778,-0.175
614603,7.230555555555555,-0.175
614604,7.233333333333333,-0.155
614605,7.236111111111111,-0.145
614606,7.238888888888889,-0.125
614607,7.241666666666666,-0.095
614608,7.2444444444444445,-0.075
614609,7.247222222222222,-0.06
614610,7.25,-0.06
614611,7.252777777777778,-0.06
614612,7.2555555555555555,-0.07
614613,7.258333333333334,-0.09
614614,7.261111111111111,-0.085
614615,7.263888888888889,-0.095
614616,7.266666666666667,-0.1
614617,7.269444444444445,-0.09
614618,7.272222222222222,-0.095
614619,7.275,-0.12
614620,7.277777777777778,-0.15
614621,7.280555555555556,-0.175
614622,7.283333333333333,-0.21
614623,7.286111111111111,-0.225
614624,7.288888888888889,-0.25
614625,7.291666666666667,-0.27
614626,7.294444444444444,-0.275
614627,7.2972222222222225,-0.285
614628,7.3,-0.29
614629,7.302777777777778,-0.305
614630,7.305555555555555,-0.305
614631,7.308333333333334,-0.3
614632,7.311111111111111,-0.305
614633,7.313888888888889,-0.31
614634,7.316666666666666,-0.32
614635,7.319444444444445,-0.31
614636,7.322222222222222,-0.315
614637,7.325,-0.325
614638,7.3277777777777775,-0.33
614639,7.330555555555556,-0.335
614640,7.333333333333333,-0.32
614641,7.336111111111111,-0.32
614642,7.338888888888889,-0.31
614643,7.341666666666667,-0.315
614644,7.344444444444444,-0.33
614645,7.347222222222222,-0.34
614646,7.35,-0.345
614647,7.352777777777778,-0.345
614648,7.355555555555555,-0.31
614649,7.358333333333333,-0.25
614650,7.361111111111111,-0.15
614651,7.363888888888889,-0.005
614652,7.366666666666666,0.195
614653,7.3694444444444445,0.435
614654,7.372222222222222,0.7
614655,7.375,0.98
614656,7.377777777777778,1.225
614657,7.3805555555555555,1.4
614658,7.383333333333334,1.49
614659,7.386111111111111,1.46
614660,7.388888888888889,1.3
614661,7.391666666666667,1.07
614662,7.394444444444445,0.76
614663,7.397222222222222,0.45
614664,7.4,0.185
614665,7.402777777777778,-0.015
614666,7.405555555555556,-0.17
614667,7.408333333333333,-0.25
614668,7.411111111111111,-0.295
614669,7.413888888888889,-0.325
614670,7.416666666666667,-0.315
614671,7.419444444444444,-0.3
614672,7.4222222222222225,-0.285
614673,7.425,-0.295
614674,7.427777777777778,-0.305
614675,7.430555555555555,-0.335
614676,7.433333333333334,-0.345
614677,7.436111111111111,-0.365
614678,7.438888888888889,-0.385
614679,7.441666666666666,-0.375
614680,7.444444444444445,-0.38
614681,7.447222222222222,-0.395
614682,7.45,-0.4
614683,7.4527777777777775,-0.395
614684,7.455555555555556,-0.405
614685,7.458333333333333,-0.41
614686,7.461111111111111,-0.41
614687,7.463888888888889,-0.41
614688,7.466666666666667,-0.41
614689,7.469444444444444,-0.395
614690,7.472222222222222,-0.39
614691,7.475,-0.375
614692,7.477777777777778,-0.375
614693,7.480555555555555,-0.38
614694,7.483333333333333,-0.38
614695,7.486111111111111,-0.39
614696,7.488888888888889,-0.415
614697,7.491666666666666,-0.415
614698,7.4944444444444445,-0.41
614699,7.497222222222222,-0.4
614700,7.5,-0.395
614701,7.502777777777778,-0.375
614702,7.5055555555555555,-0.37
614703,7.508333333333334,-0.36
614704,7.511111111111111,-0.36
614705,7.513888888888889,-0.35
614706,7.516666666666667,-0.355
614707,7.519444444444445,-0.365
614708,7.522222222222222,-0.38
614709,7.525,-0.385
614710,7.527777777777778,-0.4
614711,7.530555555555556,-0.395
614712,7.533333333333333,-0.385
614713,7.536111111111111,-0.37
614714,7.538888888888889,-0.35
614715,7.541666666666667,-0.34
614716,7.544444444444444,-0.34
614717,7.5472222222222225,-0.34
614718,7.55,-0.345
614719,7.552777777777778,-0.34
614720,7.555555555555555,-0.35
614721,7.558333333333334,-0.365
614722,7.561111111111111,-0.365
614723,7.563888888888889,-0.36
614724,7.566666666666666,-0.35
614725,7.569444444444445,-0.345
614726,7.572222222222222,-0.34
614727,7.575,-0.33
614728,7.5777777777777775,-0.34
614729,7.580555555555556,-0.325
614730,7.583333333333333,-0.335
614731,7.586111111111111,-0.34
614732,7.588888888888889,-0.34
614733,7.591666666666667,-0.34
614734,7.594444444444444,-0.34
614735,7.597222222222222,-0.31
614736,7.6,-0.29
614737,7.602777777777778,-0.28
614738,7.605555555555555,-0.28
614739,7.608333333333333,-0.27
614740,7.611111111111111,-0.27
614741,7.613888888888889,-0.265
614742,7.616666666666666,-0.265
614743,7.6194444444444445,-0.27
614744,7.622222222222222,-0.285
614745,7.625,-0.31
614746,7.627777777777778,-0.32
614747,7.6305555555555555,-0.295
614748,7.633333333333334,-0.305
614749,7.636111111111111,-0.285
614750,7.638888888888889,-0.27
614751,7.641666666666667,-0.27
614752,7.644444444444445,-0.265
614753,7.647222222222222,-0.26
614754,7.65,-0.25
614755,7.652777777777778,-0.27
614756,7.655555555555556,-0.26
614757,7.658333333333333,-0.265
614758,7.661111111111111,-0.26
614759,7.663888888888889,-0.25
614760,7.666666666666667,-0.225
614761,7.669444444444444,-0.205
614762,7.6722222222222225,-0.195
614763,7.675,-0.17
614764,7.677777777777778,-0.18
614765,7.680555555555555,-0.19
614766,7.683333333333334,-0.18
614767,7.686111111111111,-0.185
614768,7.688888888888889,-0.205
614769,7.691666666666666,-0.215
614770,7.694444444444445,-0.22
614771,7.697222222222222,-0.235
614772,7.7,-0.245
614773,7.7027777777777775,-0.25
614774,7.705555555555556,-0.235
614775,7.708333333333333,-0.23
614776,7.711111111111111,-0.22
614777,7.713888888888889,-0.22
614778,7.716666666666667,-0.225
614779,7.719444444444444,-0.22
614780,7.722222222222222,-0.235
614781,7.725,-0.255
614782,7.727777777777778,-0.27
614783,7.730555555555555,-0.265
614784,7.733333333333333,-0.255
614785,7.736111111111111,-0.245
614786,7.738888888888889,-0.24
614787,7.741666666666666,-0.225
614788,7.7444444444444445,-0.235
614789,7.747222222222222,-0.23
614790,7.75,-0.235
614791,7.752777777777778,-0.235
614792,7.7555555555555555,-0.235
614793,7.758333333333334,-0.245
614794,7.761111111111111,-0.26
614795,7.763888888888889,-0.255
614796,7.766666666666667,-0.26
614797,7.769444444444445,-0.26
614798,7.772222222222222,-0.235
614799,7.775,-0.235
614800,7.777777777777778,-0.23
614801,7.780555555555556,-0.21
614802,7.783333333333333,-0.215
614803,7.786111111111111,-0.205
614804,7.788888888888889,-0.225
614805,7.791666666666667,-0.25
614806,7.794444444444444,-0.255
614807,7.7972222222222225,-0.25
614808,7.8,-0.245
614809,7.802777777777778,-0.24
614810,7.805555555555555,-0.23
614811,7.808333333333334,-0.235
614812,7.811111111111111,-0.225
614813,7.813888888888889,-0.235
614814,7.816666666666666,-0.24
614815,7.819444444444445,-0.235
614816,7.822222222222222,-0.24
614817,7.825,-0.24
614818,7.8277777777777775,-0.25
614819,7.830555555555556,-0.245
614820,7.833333333333333,-0.24
614821,7.836111111111111,-0.245
614822,7.838888888888889,-0.23
614823,7.841666666666667,-0.225
614824,7.844444444444444,-0.235
614825,7.847222222222222,-0.23
614826,7.85,-0.225
614827,7.852777777777778,-0.235
614828,7.855555555555555,-0.245
614829,7.858333333333333,-0.255
614830,7.861111111111111,-0.245
614831,7.863888888888889,-0.255
614832,7.866666666666666,-0.24
614833,7.8694444444444445,-0.235
614834,7.872222222222222,-0.22
614835,7.875,-0.225
614836,7.877777777777778,-0.215
614837,7.8805555555555555,-0.215
614838,7.883333333333334,-0.195
614839,7.886111111111111,-0.2
614840,7.888888888888889,-0.19
614841,7.891666666666667,-0.195
614842,7.894444444444445,-0.18
614843,7.897222222222222,-0.17
614844,7.9,-0.15
614845,7.902777777777778,-0.12
614846,7.905555555555556,-0.11
614847,7.908333333333333,-0.1
614848,7.911111111111111,-0.075
614849,7.913888888888889,-0.065
614850,7.916666666666667,-0.055
614851,7.919444444444444,-0.055
614852,7.9222222222222225,-0.065
614853,7.925,-0.08
614854,7.927777777777778,-0.08
614855,7.930555555555555,-0.085
614856,7.933333333333334,-0.09
614857,7.936111111111111,-0.1
614858,7.938888888888889,-0.105
614859,7.941666666666666,-0.115
614860,7.944444444444445,-0.12
614861,7.947222222222222,-0.13
614862,7.95,-0.165
614863,7.9527777777777775,-0.185
614864,7.955555555555556,-0.215
614865,7.958333333333333,-0.25
614866,7.961111111111111,-0.275
614867,7.963888888888889,-0.295
614868,7.966666666666667,-0.285
614869,7.969444444444444,-0.29
614870,7.972222222222222,-0.28
614871,7.975,-0.285
614872,7.977777777777778,-0.295
614873,7.980555555555555,-0.3
614874,7.983333333333333,-0.3
614875,7.986111111111111,-0.295
614876,7.988888888888889,-0.305
614877,7.991666666666666,-0.315
614878,7.9944444444444445,-0.325
614879,7.997222222222222,-0.32
614880,8.0,-0.315
614881,8.002777777777778,-0.33
614882,8.005555555555556,-0.32
614883,8.008333333333333,-0.325
614884,8.011111111111111,-0.34
614885,8.01388888888889,-0.33
614886,8.016666666666667,-0.275
614887,8.019444444444444,-0.2
614888,8.022222222222222,-0.08
614889,8.025,0.11
614890,8.027777777777779,0.355
614891,8.030555555555555,0.655
614892,8.033333333333333,0.945
614893,8.036111111111111,1.24
614894,8.03888888888889,1.465
614895,8.041666666666666,1.58
614896,8.044444444444444,1.54
614897,8.047222222222222,1.375
614898,8.05,1.07
614899,8.052777777777777,0.715
614900,8.055555555555555,0.365
614901,8.058333333333334,0.065
614902,8.061111111111112,-0.14
614903,8.063888888888888,-0.265
614904,8.066666666666666,-0.33
614905,8.069444444444445,-0.35
614906,8.072222222222223,-0.325
614907,8.075,-0.305
614908,8.077777777777778,-0.275
614909,8.080555555555556,-0.255
614910,8.083333333333334,-0.27
614911,8.08611111111111,-0.31
614912,8.088888888888889,-0.34
614913,8.091666666666667,-0.375
614914,8.094444444444445,-0.39
614915,8.097222222222221,-0.4
614916,8.1,-0.4
614917,8.102777777777778,-0.39
614918,8.105555555555556,-0.385
614919,8.108333333333333,-0.39
614920,8.11111111111111,-0.385
614921,8.113888888888889,-0.385
614922,8.116666666666667,-0.385
614923,8.119444444444444,-0.395
614924,8.122222222222222,-0.405
614925,8.125,-0.42
614926,8.127777777777778,-0.425
614927,8.130555555555556,-0.42
614928,8.133333333333333,-0.415
614929,8.136111111111111,-0.405
614930,8.13888888888889,-0.4
614931,8.141666666666667,-0.405
614932,8.144444444444444,-0.405
614933,8.147222222222222,-0.395
614934,8.15,-0.39
614935,8.152777777777779,-0.395
614936,8.155555555555555,-0.39
614937,8.158333333333333,-0.4
614938,8.161111111111111,-0.405
614939,8.16388888888889,-0.395
614940,8.166666666666666,-0.395
614941,8.169444444444444,-0.4
614942,8.172222222222222,-0.395
614943,8.175,-0.39
614944,8.177777777777777,-0.395
614945,8.180555555555555,-0.38
614946,8.183333333333334,-0.365
614947,8.186111111111112,-0.37
614948,8.188888888888888,-0.375
614949,8.191666666666666,-0.39
614950,8.194444444444445,-0.39
614951,8.197222222222223,-0.385
614952,8.2,-0.365
614953,8.202777777777778,-0.35
614954,8.205555555555556,-0.36
614955,8.208333333333334,-0.35
614956,8.21111111111111,-0.345
614957,8.213888888888889,-0.345
614958,8.216666666666667,-0.345
614959,8.219444444444445,-0.34
614960,8.222222222222221,-0.35
614961,8.225,-0.355
614962,8.227777777777778,-0.345
614963,8.230555555555556,-0.34
614964,8.233333333333333,-0.33
614965,8.23611111111111,-0.335
614966,8.238888888888889,-0.325
614967,8.241666666666667,-0.31
614968,8.244444444444444,-0.315
614969,8.247222222222222,-0.305
614970,8.25,-0.305
614971,8.252777777777778,-0.29
614972,8.255555555555556,-0.295
614973,8.258333333333333,-0.3
614974,8.261111111111111,-0.31
614975,8.26388888888889,-0.3
614976,8.266666666666667,-0.285
614977,8.269444444444444,-0.275
614978,8.272222222222222,-0.28
614979,8.275,-0.27
614980,8.277777777777779,-0.275
614981,8.280555555555555,-0.285
614982,8.283333333333333,-0.285
614983,8.286111111111111,-0.28
614984,8.28888888888889,-0.295
614985,8.291666666666666,-0.305
614986,8.294444444444444,-0.31
614987,8.297222222222222,-0.31
614988,8.3,-0.3
614989,8.302777777777777,-0.285
614990,8.305555555555555,-0.275
614991,8.308333333333334,-0.27
614992,8.311111111111112,-0.265
614993,8.313888888888888,-0.255
614994,8.316666666666666,-0.24
614995,8.319444444444445,-0.245
614996,8.322222222222223,-0.23
614997,8.325,-0.235
614998,8.327777777777778,-0.235
614999,8.330555555555556,-0.235
615000,8.333333333333334,-0.23
615001,8.33611111111111,-0.23
615002,8.338888888888889,-0.215
615003,8.341666666666667,-0.225
615004,8.344444444444445,-0.215
615005,8.347222222222221,-0.22
615006,8.35,-0.235
615007,8.352777777777778,-0.24
615008,8.355555555555556,-0.245
615009,8.358333333333333,-0.255
615010,8.36111111111111,-0.265
615011,8.363888888888889,-0.265
615012,8.366666666666667,-0.255
615013,8.369444444444444,-0.26
615014,8.372222222222222,-0.255
615015,8.375,-0.25
615016,8.377777777777778,-0.26
615017,8.380555555555556,-0.26
615018,8.383333333333333,-0.265
615019,8.386111111111111,-0.275
615020,8.38888888888889,-0.27
615021,8.391666666666667,-0.275
615022,8.394444444444444,-0.27
615023,8.397222222222222,-0.28
615024,8.4,-0.27
615025,8.402777777777779,-0.27
615026,8.405555555555555,-0.27
615027,8.408333333333333,-0.26
615028,8.411111111111111,-0.265
615029,8.41388888888889,-0.265
615030,8.416666666666666,-0.275
615031,8.419444444444444,-0.275
615032,8.422222222222222,-0.27
615033,8.425,-0.28
615034,8.427777777777777,-0.285
615035,8.430555555555555,-0.27
615036,8.433333333333334,-0.275
615037,8.436111111111112,-0.26
615038,8.438888888888888,-0.25
615039,8.441666666666666,-0.24
615040,8.444444444444445,-0.24
615041,8.447222222222223,-0.25
615042,8.45,-0.245
615043,8.452777777777778,-0.26
615044,8.455555555555556,-0.255
615045,8.458333333333334,-0.25
615046,8.46111111111111,-0.245
615047,8.463888888888889,-0.245
615048,8.466666666666667,-0.245
615049,8.469444444444445,-0.235
615050,8.472222222222221,-0.225
615051,8.475,-0.225
615052,8.477777777777778,-0.225
615053,8.480555555555556,-0.225
615054,8.483333333333333,-0.24
615055,8.48611111111111,-0.245
615056,8.488888888888889,-0.235
615057,8.491666666666667,-0.245
615058,8.494444444444444,-0.235
615059,8.497222222222222,-0.24
615060,8.5,-0.25
615061,8.502777777777778,-0.24
615062,8.505555555555556,-0.235
615063,8.508333333333333,-0.24
615064,8.511111111111111,-0.23
615065,8.51388888888889,-0.25
615066,8.516666666666667,-0.245
615067,8.519444444444444,-0.255
615068,8.522222222222222,-0.26
615069,8.525,-0.255
615070,8.527777777777779,-0.26
615071,8.530555555555555,-0.25
615072,8.533333333333333,-0.25
615073,8.536111111111111,-0.225
615074,8.53888888888889,-0.205
615075,8.541666666666666,-0.195
615076,8.544444444444444,-0.195
615077,8.547222222222222,-0.195
615078,8.55,-0.19
615079,8.552777777777777,-0.18
615080,8.555555555555555,-0.175
615081,8.558333333333334,-0.17
615082,8.561111111111112,-0.15
615083,8.563888888888888,-0.135
615084,8.566666666666666,-0.12
615085,8.569444444444445,-0.095
615086,8.572222222222223,-0.07
615087,8.575,-0.045
615088,8.577777777777778,-0.055
615089,8.580555555555556,-0.065
615090,8.583333333333334,-0.08
615091,8.58611111111111,-0.1
615092,8.588888888888889,-0.1
615093,8.591666666666667,-0.095
615094,8.594444444444445,-0.11
615095,8.597222222222221,-0.105
615096,8.6,-0.13
615097,8.602777777777778,-0.135
615098,8.605555555555556,-0.145
615099,8.608333333333333,-0.16
615100,8.61111111111111,-0.19
615101,8.613888888888889,-0.21
615102,8.616666666666667,-0.25
615103,8.619444444444444,-0.265
615104,8.622222222222222,-0.29
615105,8.625,-0.29
615106,8.627777777777778,-0.3
615107,8.630555555555556,-0.305
615108,8.633333333333333,-0.305
615109,8.636111111111111,-0.31
615110,8.63888888888889,-0.31
615111,8.641666666666667,-0.31
615112,8.644444444444444,-0.305
615113,8.647222222222222,-0.32
615114,8.65,-0.33
615115,8.652777777777779,-0.34
615116,8.655555555555555,-0.345
615117,8.658333333333333,-0.355
615118,8.661111111111111,-0.34
615119,8.66388888888889,-0.355
615120,8.666666666666666,-0.35
615121,8.669444444444444,-0.36
615122,8.672222222222222,-0.35
615123,8.675,-0.32
615124,8.677777777777777,-0.265
615125,8.680555555555555,-0.165
615126,8.683333333333334,-0.015
615127,8.686111111111112,0.205
615128,8.688888888888888,0.47
615129,8.691666666666666,0.765
615130,8.694444444444445,1.07
615131,8.697222222222223,1.33
615132,8.7,1.525
615133,8.702777777777778,1.585
615134,8.705555555555556,1.495
615135,8.708333333333334,1.275
615136,8.71111111111111,0.94
615137,8.713888888888889,0.555
615138,8.716666666666667,0.21
615139,8.719444444444445,-0.07
615140,8.722222222222221,-0.24
615141,8.725,-0.325
615142,8.727777777777778,-0.36
615143,8.730555555555556,-0.335
615144,8.733333333333333,-0.305
615145,8.73611111111111,-0.28
615146,8.738888888888889,-0.28
615147,8.741666666666667,-0.3
615148,8.744444444444444,-0.335
615149,8.747222222222222,-0.34
615150,8.75,-0.37
615151,8.752777777777778,-0.39
615152,8.755555555555556,-0.39
615153,8.758333333333333,-0.41
615154,8.761111111111111,-0.415
615155,8.76388888888889,-0.4
615156,8.766666666666667,-0.395
615157,8.769444444444444,-0.4
615158,8.772222222222222,-0.405
615159,8.775,-0.4
615160,8.777777777777779,-0.4
615161,8.780555555555555,-0.4
615162,8.783333333333333,-0.42
615163,8.786111111111111,-0.41
615164,8.78888888888889,-0.41
615165,8.791666666666666,-0.41
615166,8.794444444444444,-0.42
615167,8.797222222222222,-0.42
615168,8.8,-0.4
615169,8.802777777777777,-0.395
615170,8.805555555555555,-0.395
615171,8.808333333333334,-0.385
615172,8.811111111111112,-0.395
615173,8.813888888888888,-0.39
615174,8.816666666666666,-0.395
615175,8.819444444444445,-0.39
615176,8.822222222222223,-0.395
615177,8.825,-0.395
615178,8.827777777777778,-0.385
615179,8.830555555555556,-0.38
615180,8.833333333333334,-0.375
615181,8.83611111111111,-0.365
615182,8.838888888888889,-0.37
615183,8.841666666666667,-0.375
615184,8.844444444444445,-0.365
615185,8.847222222222221,-0.37
615186,8.85,-0.365
615187,8.852777777777778,-0.36
615188,8.855555555555556,-0.375
615189,8.858333333333333,-0.37
615190,8.86111111111111,-0.365
615191,8.863888888888889,-0.365
615192,8.866666666666667,-0.35
615193,8.869444444444444,-0.34
615194,8.872222222222222,-0.34
615195,8.875,-0.335
615196,8.877777777777778,-0.33
615197,8.880555555555556,-0.325
615198,8.883333333333333,-0.325
615199,8.886111111111111,-0.32
615200,8.88888888888889,-0.32
615201,8.891666666666667,-0.315
615202,8.894444444444444,-0.315
615203,8.897222222222222,-0.315
615204,8.9,-0.3
615205,8.902777777777779,-0.295
615206,8.905555555555555,-0.3
615207,8.908333333333333,-0.295
615208,8.911111111111111,-0.29
615209,8.91388888888889,-0.285
615210,8.916666666666666,-0.285
615211,8.919444444444444,-0.28
615212,8.922222222222222,-0.275
615213,8.925,-0.28
615214,8.927777777777777,-0.285
615215,8.930555555555555,-0.275
615216,8.933333333333334,-0.28
615217,8.936111111111112,-0.275
615218,8.938888888888888,-0.275
615219,8.941666666666666,-0.265
615220,8.944444444444445,-0.265
615221,8.947222222222223,-0.255
615222,8.95,-0.255
615223,8.952777777777778,-0.245
615224,8.955555555555556,-0.245
615225,8.958333333333334,-0.24
615226,8.96111111111111,-0.235
615227,8.963888888888889,-0.22
615228,8.966666666666667,-0.22
615229,8.969444444444445,-0.21
615230,8.972222222222221,-0.205
615231,8.975,-0.195
615232,8.977777777777778,-0.19
615233,8.980555555555556,-0.19
615234,8.983333333333333,-0.18
615235,8.98611111111111,-0.195
615236,8.988888888888889,-0.19
615237,8.991666666666667,-0.2
615238,8.994444444444444,-0.2
615239,8.997222222222222,-0.21
615240,9.0,-0.21
615241,9.002777777777778,-0.21
615242,9.005555555555556,-0.215
615243,9.008333333333333,-0.215
615244,9.011111111111111,-0.2
615245,9.01388888888889,-0.21
615246,9.016666666666667,-0.215
615247,9.019444444444444,-0.225
615248,9.022222222222222,-0.235
615249,9.025,-0.25
615250,9.027777777777779,-0.255
615251,9.030555555555555,-0.25
615252,9.033333333333333,-0.25
615253,9.036111111111111,-0.255
615254,9.03888888888889,-0.25
615255,9.041666666666666,-0.215
615256,9.044444444444444,-0.21
615257,9.047222222222222,-0.215
615258,9.05,-0.23
615259,9.052777777777777,-0.215
615260,9.055555555555555,-0.23
615261,9.058333333333334,-0.22
615262,9.061111111111112,-0.225
615263,9.063888888888888,-0.24
615264,9.066666666666666,-0.245
615265,9.069444444444445,-0.245
615266,9.072222222222223,-0.235
615267,9.075,-0.225
615268,9.077777777777778,-0.215
615269,9.080555555555556,-0.215
615270,9.083333333333334,-0.215
615271,9.08611111111111,-0.225
615272,9.088888888888889,-0.235
615273,9.091666666666667,-0.235
615274,9.094444444444445,-0.23
615275,9.097222222222221,-0.235
615276,9.1,-0.23
615277,9.102777777777778,-0.23
615278,9.105555555555556,-0.225
615279,9.108333333333333,-0.21
615280,9.11111111111111,-0.205
615281,9.113888888888889,-0.205
615282,9.116666666666667,-0.215
615283,9.119444444444444,-0.21
615284,9.122222222222222,-0.23
615285,9.125,-0.23
615286,9.127777777777778,-0.215
615287,9.130555555555556,-0.22
615288,9.133333333333333,-0.225
615289,9.136111111111111,-0.23
615290,9.13888888888889,-0.24
615291,9.141666666666667,-0.225
615292,9.144444444444444,-0.225
615293,9.147222222222222,-0.22
615294,9.15,-0.22
615295,9.152777777777779,-0.215
615296,9.155555555555555,-0.22
615297,9.158333333333333,-0.225
615298,9.161111111111111,-0.23
615299,9.16388888888889,-0.235
615300,9.166666666666666,-0.225
615301,9.169444444444444,-0.22
615302,9.172222222222222,-0.215
615303,9.175,-0.19
615304,9.177777777777777,-0.18
615305,9.180555555555555,-0.18
615306,9.183333333333334,-0.175
615307,9.186111111111112,-0.16
615308,9.188888888888888,-0.16
615309,9.191666666666666,-0.15
615310,9.194444444444445,-0.14
615311,9.197222222222223,-0.135
615312,9.2,-0.125
615313,9.202777777777778,-0.1
615314,9.205555555555556,-0.065
615315,9.208333333333334,-0.04
615316,9.21111111111111,-0.015
615317,9.213888888888889,-0.015
615318,9.216666666666667,-0.01
615319,9.219444444444445,-0.02
615320,9.222222222222221,-0.045
615321,9.225,-0.065
615322,9.227777777777778,-0.065
615323,9.230555555555556,-0.065
615324,9.233333333333333,-0.075
615325,9.23611111111111,-0.095
615326,9.238888888888889,-0.095
615327,9.241666666666667,-0.1
615328,9.244444444444444,-0.11
615329,9.247222222222222,-0.14
615330,9.25,-0.155
615331,9.252777777777778,-0.19
615332,9.255555555555556,-0.2
615333,9.258333333333333,-0.225
615334,9.261111111111111,-0.235
615335,9.26388888888889,-0.255
615336,9.266666666666667,-0.27
615337,9.269444444444444,-0.27
615338,9.272222222222222,-0.275
615339,9.275,-0.27
615340,9.277777777777779,-0.265
615341,9.280555555555555,-0.265
615342,9.283333333333333,-0.28
615343,9.286111111111111,-0.285
615344,9.28888888888889,-0.285
615345,9.291666666666666,-0.28
615346,9.294444444444444,-0.295
615347,9.297222222222222,-0.29
615348,9.3,-0.295
615349,9.302777777777777,-0.305
615350,9.305555555555555,-0.31
615351,9.308333333333334,-0.305
615352,9.311111111111112,-0.325
615353,9.313888888888888,-0.335
615354,9.316666666666666,-0.3
615355,9.319444444444445,-0.255
615356,9.322222222222223,-0.185
615357,9.325,-0.055
615358,9.327777777777778,0.135
615359,9.330555555555556,0.37
615360,9.333333333333334,0.66
615361,9.33611111111111,0.98
615362,9.338888888888889,1.27
615363,9.341666666666667,1.495
615364,9.344444444444445,1.59
615365,9.347222222222221,1.545
615366,9.35,1.355
615367,9.352777777777778,1.065
615368,9.355555555555556,0.73
615369,9.358333333333333,0.4
615370,9.36111111111111,0.115
615371,9.363888888888889,-0.08
615372,9.366666666666667,-0.22
615373,9.369444444444444,-0.27
615374,9.372222222222222,-0.285
615375,9.375,-0.265
615376,9.377777777777778,-0.255
615377,9.380555555555556,-0.235
615378,9.383333333333333,-0.255
615379,9.386111111111111,-0.28
615380,9.38888888888889,-0.305
615381,9.391666666666667,-0.34
615382,9.394444444444444,-0.35
615383,9.397222222222222,-0.36
615384,9.4,-0.37
615385,9.402777777777779,-0.365
615386,9.405555555555555,-0.36
615387,9.408333333333333,-0.365
615388,9.411111111111111,-0.365
615389,9.41388888888889,-0.355
615390,9.416666666666666,-0.36
615391,9.419444444444444,-0.36
615392,9.422222222222222,-0.375
615393,9.425,-0.385
615394,9.427777777777777,-0.38
615395,9.430555555555555,-0.38
615396,9.433333333333334,-0.375
615397,9.436111111111112,-0.375
615398,9.438888888888888,-0.385
615399,9.441666666666666,-0.37
615400,9.444444444444445,-0.37
615401,9.447222222222223,-0.37
615402,9.45,-0.385
615403,9.452777777777778,-0.375
615404,9.455555555555556,-0.4
615405,9.458333333333334,-0.39
615406,9.46111111111111,-0.385
615407,9.463888888888889,-0.365
615408,9.466666666666667,-0.355
615409,9.469444444444445,-0.35
615410,9.472222222222221,-0.34
615411,9.475,-0.345
615412,9.477777777777778,-0.345
615413,9.480555555555556,-0.33
615414,9.483333333333333,-0.34
615415,9.48611111111111,-0.345
615416,9.488888888888889,-0.345
615417,9.491666666666667,-0.36
615418,9.494444444444444,-0.345
615419,9.497222222222222,-0.34
615420,9.5,-0.32
615421,9.502777777777778,-0.315
615422,9.505555555555556,-0.31
615423,9.508333333333333,-0.305
615424,9.511111111111111,-0.305
615425,9.51388888888889,-0.29
615426,9.516666666666667,-0.295
615427,9.519444444444444,-0.305
615428,9.522222222222222,-0.305
615429,9.525,-0.315
615430,9.527777777777779,-0.295
615431,9.530555555555555,-0.295
615432,9.533333333333333,-0.27
615433,9.536111111111111,-0.27
615434,9.53888888888889,-0.26
615435,9.541666666666666,-0.265
615436,9.544444444444444,-0.26
615437,9.547222222222222,-0.26
615438,9.55,-0.26
615439,9.552777777777777,-0.255
615440,9.555555555555555,-0.265
615441,9.558333333333334,-0.265
615442,9.561111111111112,-0.25
615443,9.563888888888888,-0.245
615444,9.566666666666666,-0.24
615445,9.569444444444445,-0.23
615446,9.572222222222223,-0.225
615447,9.575,-0.215
615448,9.577777777777778,-0.225
615449,9.580555555555556,-0.22
615450,9.583333333333334,-0.235
615451,9.58611111111111,-0.24
615452,9.588888888888889,-0.25
615453,9.591666666666667,-0.25
615454,9.594444444444445,-0.245
615455,9.597222222222221,-0.24
615456,9.6,-0.225
615457,9.602777777777778,-0.22
615458,9.605555555555556,-0.215
615459,9.608333333333333,-0.2
615460,9.61111111111111,-0.2
615461,9.613888888888889,-0.195
615462,9.616666666666667,-0.19
615463,9.619444444444444,-0.195
615464,9.622222222222222,-0.195
615465,9.625,-0.18
615466,9.627777777777778,-0.19
615467,9.630555555555556,-0.17
615468,9.633333333333333,-0.165
615469,9.636111111111111,-0.155
615470,9.63888888888889,-0.135
615471,9.641666666666667,-0.155
615472,9.644444444444444,-0.16
615473,9.647222222222222,-0.155
615474,9.65,-0.16
615475,9.652777777777779,-0.175
615476,9.655555555555555,-0.195
615477,9.658333333333333,-0.205
615478,9.661111111111111,-0.2
615479,9.66388888888889,-0.19
615480,9.666666666666666,-0.18
615481,9.669444444444444,-0.18
615482,9.672222222222222,-0.175
615483,9.675,-0.185
615484,9.677777777777777,-0.165
615485,9.680555555555555,-0.17
615486,9.683333333333334,-0.195
615487,9.686111111111112,-0.2
615488,9.688888888888888,-0.2
615489,9.691666666666666,-0.21
615490,9.694444444444445,-0.21
615491,9.697222222222223,-0.195
615492,9.7,-0.18
615493,9.702777777777778,-0.175
615494,9.705555555555556,-0.165
615495,9.708333333333334,-0.15
615496,9.71111111111111,-0.16
615497,9.713888888888889,-0.16
615498,9.716666666666667,-0.165
615499,9.719444444444445,-0.165
615500,9.722222222222221,-0.175
615501,9.725,-0.175
615502,9.727777777777778,-0.15
615503,9.730555555555556,-0.12
615504,9.733333333333333,-0.08
615505,9.73611111111111,-0.055
615506,9.738888888888889,-0.025
615507,9.741666666666667,-0.005
615508,9.744444444444444,0.01
615509,9.747222222222222,0.015
615510,9.75,0.03
615511,9.752777777777778,0.035
615512,9.755555555555556,0.035
615513,9.758333333333333,0.03
615514,9.761111111111111,0.06
615515,9.76388888888889,0.095
615516,9.766666666666667,0.14
615517,9.769444444444444,0.16
615518,9.772222222222222,0.225
615519,9.775,0.27
615520,9.777777777777779,0.295
615521,9.780555555555555,0.355
615522,9.783333333333333,0.41
615523,9.786111111111111,0.485
615524,9.78888888888889,0.575
615525,9.791666666666666,0.67
615526,9.794444444444444,0.78
615527,9.797222222222222,0.865
615528,9.8,0.945
615529,9.802777777777777,0.965
615530,9.805555555555555,0.985
615531,9.808333333333334,0.965
615532,9.811111111111112,0.96
615533,9.813888888888888,0.945
615534,9.816666666666666,0.91
615535,9.819444444444445,0.87
615536,9.822222222222223,0.835
615537,9.825,0.795
615538,9.827777777777778,0.775
615539,9.830555555555556,0.77
615540,9.833333333333334,0.785
615541,9.83611111111111,0.815
615542,9.838888888888889,0.855
615543,9.841666666666667,0.87
615544,9.844444444444445,0.845
615545,9.847222222222221,0.78
615546,9.85,0.68
615547,9.852777777777778,0.56
615548,9.855555555555556,0.42
615549,9.858333333333333,0.29
615550,9.86111111111111,0.185
615551,9.863888888888889,0.08
615552,9.866666666666667,0.025
615553,9.869444444444444,-0.02
615554,9.872222222222222,-0.03
615555,9.875,-0.07
615556,9.877777777777778,-0.115
615557,9.880555555555556,-0.165
615558,9.883333333333333,-0.195
615559,9.886111111111111,-0.225
615560,9.88888888888889,-0.255
615561,9.891666666666667,-0.27
615562,9.894444444444444,-0.305
615563,9.897222222222222,-0.325
615564,9.9,-0.335
615565,9.902777777777779,-0.345
615566,9.905555555555555,-0.365
615567,9.908333333333333,-0.37
615568,9.911111111111111,-0.385
615569,9.91388888888889,-0.41
615570,9.916666666666666,-0.425
615571,9.919444444444444,-0.455
615572,9.922222222222222,-0.47
615573,9.925,-0.49
615574,9.927777777777777,-0.51
615575,9.930555555555555,-0.515
615576,9.933333333333334,-0.525
615577,9.936111111111112,-0.505
615578,9.938888888888888,-0.505
615579,9.941666666666666,-0.49
615580,9.944444444444445,-0.495
615581,9.947222222222223,-0.49
615582,9.95,-0.5
615583,9.952777777777778,-0.505
615584,9.955555555555556,-0.515
615585,9.958333333333334,-0.53
615586,9.96111111111111,-0.535
615587,9.963888888888889,-0.535
615588,9.966666666666667,-0.54
615589,9.969444444444445,-0.53
615590,9.972222222222221,-0.52
615591,9.975,-0.515
615592,9.977777777777778,-0.52
615593,9.980555555555556,-0.515
615594,9.983333333333333,-0.525
615595,9.98611111111111,-0.54
615596,9.988888888888889,-0.545
615597,9.991666666666667,-0.55
615598,9.994444444444444,-0.565
615599,9.997222222222222,-0.565
