source_sample,relative_time_s,raw_MLII
505800,0.0,4.865
505801,0.002777777777777778,4.865
505802,0.005555555555555556,4.855
505803,0.008333333333333333,4.855
505804,0.011111111111111112,4.86
505805,0.013888888888888888,4.84
505806,0.016666666666666666,4.835
505807,0.019444444444444445,4.8
505808,0.022222222222222223,4.78
505809,0.025,4.775
505810,0.027777777777777776,4.78
505811,0.030555555555555555,4.765
505812,0.03333333333333333,4.765
505813,0.03611111111111111,4.76
505814,0.03888888888888889,4.745
505815,0.041666666666666664,4.735
505816,0.044444444444444446,4.735
505817,0.04722222222222222,4.715
505818,0.05,4.69
505819,0.05277777777777778,4.695
505820,0.05555555555555555,4.68
505821,0.058333333333333334,4.655
505822,0.06111111111111111,4.645
505823,0.06388888888888888,4.655
505824,0.06666666666666667,4.645
505825,0.06944444444444445,4.645
505826,0.07222222222222222,4.655
505827,0.075,4.655
505828,0.07777777777777778,4.635
505829,0.08055555555555556,4.59
505830,0.08333333333333333,4.58
505831,0.08611111111111111,4.585
505832,0.08888888888888889,4.56
505833,0.09166666666666666,4.54
505834,0.09444444444444444,4.54
505835,0.09722222222222222,4.515
505836,0.1,4.51
505837,0.10277777777777777,4.52
505838,0.10555555555555556,4.52
505839,0.10833333333333334,4.51
505840,0.1111111111111111,4.5
505841,0.11388888888888889,4.5
505842,0.11666666666666667,4.47
505843,0.11944444444444445,4.45
505844,0.12222222222222222,4.435
505845,0.125,4.42
505846,0.12777777777777777,4.415
505847,0.13055555555555556,4.415
505848,0.13333333333333333,4.415
505849,0.1361111111111111,4.41
505850,0.1388888888888889,4.405
505851,0.14166666666666666,4.405
505852,0.14444444444444443,4.395
505853,0.14722222222222223,4.39
505854,0.15,4.365
505855,0.1527777777777778,4.35
505856,0.15555555555555556,4.335
505857,0.15833333333333333,4.32
505858,0.16111111111111112,4.31
505859,0.1638888888888889,4.3
505860,0.16666666666666666,4.3
505861,0.16944444444444445,4.285
505862,0.17222222222222222,4.29
505863,0.175,4.285
505864,0.17777777777777778,4.275
505865,0.18055555555555555,4.265
505866,0.18333333333333332,4.235
505867,0.18611111111111112,4.21
505868,0.18888888888888888,4.185
505869,0.19166666666666668,4.16
505870,0.19444444444444445,4.155
505871,0.19722222222222222,4.15
505872,0.2,4.15
505873,0.20277777777777778,4.14
505874,0.20555555555555555,4.145
505875,0.20833333333333334,4.14
505876,0.2111111111111111,4.12
505877,0.21388888888888888,4.12
505878,0.21666666666666667,4.095
505879,0.21944444444444444,4.075
505880,0.2222222222222222,4.05
505881,0.225,4.02
505882,0.22777777777777777,4.02
505883,0.23055555555555557,4.005
505884,0.23333333333333334,4.01
505885,0.2361111111111111,3.99
505886,0.2388888888888889,3.98
505887,0.24166666666666667,3.985
505888,0.24444444444444444,3.97
505889,0.24722222222222223,3.935
505890,0.25,3.93
505891,0.25277777777777777,3.885
505892,0.25555555555555554,3.88
505893,0.25833333333333336,3.855
505894,0.2611111111111111,3.84
505895,0.2638888888888889,3.825
505896,0.26666666666666666,3.825
505897,0.26944444444444443,3.815
505898,0.2722222222222222,3.79
505899,0.275,3.785
505900,0.2777777777777778,3.745
505901,0.28055555555555556,3.71
505902,0.2833333333333333,3.68
505903,0.2861111111111111,3.645
505904,0.28888888888888886,3.605
505905,0.2916666666666667,3.535
505906,0.29444444444444445,3.455
505907,0.2972222222222222,3.325
505908,0.3,3.07
505909,0.30277777777777776,2.525
505910,0.3055555555555556,1.885
505911,0.30833333333333335,1.245
505912,0.3111111111111111,0.605
505913,0.3138888888888889,-0.035
505914,0.31666666666666665,-0.425
505915,0.3194444444444444,-0.175
505916,0.32222222222222224,0.065
505917,0.325,0.14
505918,0.3277777777777778,0.005
505919,0.33055555555555555,-0.27
505920,0.3333333333333333,-0.675
505921,0.33611111111111114,-1.065
505922,0.3388888888888889,-1.425
505923,0.3416666666666667,-1.73
505924,0.34444444444444444,-1.985
505925,0.3472222222222222,-2.245
505926,0.35,-2.475
505927,0.3527777777777778,-2.72
505928,0.35555555555555557,-2.89
505929,0.35833333333333334,-3.055
505930,0.3611111111111111,-3.155
505931,0.3638888888888889,-3.21
505932,0.36666666666666664,-3.245
505933,0.36944444444444446,-3.265
505934,0.37222222222222223,-3.285
505935,0.375,-3.315
505936,0.37777777777777777,-3.36
505937,0.38055555555555554,-3.405
505938,0.38333333333333336,-3.465
505939,0.3861111111111111,-3.505
505940,0.3888888888888889,-3.545
505941,0.39166666666666666,-3.57
505942,0.39444444444444443,-3.6
505943,0.3972222222222222,-3.61
505944,0.4,-3.605
505945,0.4027777777777778,-3.6
505946,0.40555555555555556,-3.595
505947,0.4083333333333333,-3.615
505948,0.4111111111111111,-3.63
505949,0.41388888888888886,-3.655
505950,0.4166666666666667,-3.7
505951,0.41944444444444445,-3.725
505952,0.4222222222222222,-3.74
505953,0.425,-3.785
505954,0.42777777777777776,-3.81
505955,0.4305555555555556,-3.81
505956,0.43333333333333335,-3.79
505957,0.4361111111111111,-3.805
505958,0.4388888888888889,-3.81
505959,0.44166666666666665,-3.81
505960,0.4444444444444444,-3.84
505961,0.44722222222222224,-3.865
505962,0.45,-3.915
505963,0.4527777777777778,-3.92
505964,0.45555555555555555,-3.945
505965,0.4583333333333333,-3.96
505966,0.46111111111111114,-3.98
505967,0.4638888888888889,-3.98
505968,0.4666666666666667,-3.975
505969,0.46944444444444444,-3.98
505970,0.4722222222222222,-3.96
505971,0.475,-3.96
505972,0.4777777777777778,-3.975
505973,0.48055555555555557,-3.985
505974,0.48333333333333334,-4.0
505975,0.4861111111111111,-4.015
505976,0.4888888888888889,-4.03
505977,0.49166666666666664,-4.04
505978,0.49444444444444446,-4.045
505979,0.49722222222222223,-4.04
505980,0.5,-4.03
505981,0.5027777777777778,-4.04
505982,0.5055555555555555,-4.03
505983,0.5083333333333333,-4.025
505984,0.5111111111111111,-4.02
505985,0.5138888888888888,-4.0
505986,0.5166666666666667,-3.96
505987,0.5194444444444445,-3.915
505988,0.5222222222222223,-3.815
505989,0.525,-3.65
505990,0.5277777777777778,-3.445
505991,0.5305555555555556,-3.195
505992,0.5333333333333333,-2.91
505993,0.5361111111111111,-2.6
505994,0.5388888888888889,-2.265
505995,0.5416666666666666,-1.895
505996,0.5444444444444444,-1.63
505997,0.5472222222222223,-1.435
505998,0.55,-1.41
505999,0.5527777777777778,-1.635
506000,0.5555555555555556,-2.12
506001,0.5583333333333333,-2.76
506002,0.5611111111111111,-3.4
506003,0.5638888888888889,-4.04
506004,0.5666666666666667,-4.35
506005,0.5694444444444444,-4.41
506006,0.5722222222222222,-4.32
506007,0.575,-4.14
506008,0.5777777777777777,-4.01
506009,0.5805555555555556,-3.94
506010,0.5833333333333334,-3.92
506011,0.5861111111111111,-3.95
506012,0.5888888888888889,-4.0
506013,0.5916666666666667,-4.045
506014,0.5944444444444444,-4.09
506015,0.5972222222222222,-4.11
506016,0.6,-4.13
506017,0.6027777777777777,-4.115
506018,0.6055555555555555,-4.115
506019,0.6083333333333333,-4.105
506020,0.6111111111111112,-4.085
506021,0.6138888888888889,-4.09
506022,0.6166666666666667,-4.095
506023,0.6194444444444445,-4.09
506024,0.6222222222222222,-4.11
506025,0.625,-4.12
506026,0.6277777777777778,-4.125
506027,0.6305555555555555,-4.12
506028,0.6333333333333333,-4.115
506029,0.6361111111111111,-4.095
506030,0.6388888888888888,-4.115
506031,0.6416666666666667,-4.08
506032,0.6444444444444445,-4.075
506033,0.6472222222222223,-4.075
506034,0.65,-4.075
506035,0.6527777777777778,-4.075
506036,0.6555555555555556,-4.08
506037,0.6583333333333333,-4.08
506038,0.6611111111111111,-4.09
506039,0.6638888888888889,-4.1
506040,0.6666666666666666,-4.09
506041,0.6694444444444444,-4.08
506042,0.6722222222222223,-4.065
506043,0.675,-4.055
506044,0.6777777777777778,-4.05
506045,0.6805555555555556,-4.06
506046,0.6833333333333333,-4.06
506047,0.6861111111111111,-4.06
506048,0.6888888888888889,-4.05
506049,0.6916666666666667,-4.05
506050,0.6944444444444444,-4.065
506051,0.6972222222222222,-4.06
506052,0.7,-4.04
506053,0.7027777777777777,-4.035
506054,0.7055555555555556,-4.03
506055,0.7083333333333334,-4.015
506056,0.7111111111111111,-4.005
506057,0.7138888888888889,-4.01
506058,0.7166666666666667,-4.0
506059,0.7194444444444444,-4.015
506060,0.7222222222222222,-4.015
506061,0.725,-4.02
506062,0.7277777777777777,-4.02
506063,0.7305555555555555,-4.005
506064,0.7333333333333333,-3.985
506065,0.7361111111111112,-3.98
506066,0.7388888888888889,-3.96
506067,0.7416666666666667,-3.925
506068,0.7444444444444445,-3.91
506069,0.7472222222222222,-3.895
506070,0.75,-3.895
506071,0.7527777777777778,-3.895
506072,0.7555555555555555,-3.885
506073,0.7583333333333333,-3.895
506074,0.7611111111111111,-3.89
506075,0.7638888888888888,-3.89
506076,0.7666666666666667,-3.875
506077,0.7694444444444445,-3.87
506078,0.7722222222222223,-3.86
506079,0.775,-3.845
506080,0.7777777777777778,-3.855
506081,0.7805555555555556,-3.875
506082,0.7833333333333333,-3.885
506083,0.7861111111111111,-3.89
506084,0.7888888888888889,-3.88
506085,0.7916666666666666,-3.91
506086,0.7944444444444444,-3.93
506087,0.7972222222222223,-3.915
506088,0.8,-3.93
506089,0.8027777777777778,-3.935
506090,0.8055555555555556,-3.94
506091,0.8083333333333333,-3.94
506092,0.8111111111111111,-3.94
506093,0.8138888888888889,-3.96
506094,0.8166666666666667,-3.98
506095,0.8194444444444444,-4.005
506096,0.8222222222222222,-4.035
506097,0.825,-4.04
506098,0.8277777777777777,-4.045
506099,0.8305555555555556,-4.05
506100,0.8333333333333334,-4.055
506101,0.8361111111111111,-4.045
506102,0.8388888888888889,-4.045
506103,0.8416666666666667,-4.06
506104,0.8444444444444444,-4.07
506105,0.8472222222222222,-4.06
506106,0.85,-4.07
506107,0.8527777777777777,-4.095
506108,0.8555555555555555,-4.1
506109,0.8583333333333333,-4.115
506110,0.8611111111111112,-4.105
506111,0.8638888888888889,-4.115
506112,0.8666666666666667,-4.11
506113,0.8694444444444445,-4.095
506114,0.8722222222222222,-4.085
506115,0.875,-4.08
506116,0.8777777777777778,-4.075
506117,0.8805555555555555,-4.08
506118,0.8833333333333333,-4.095
506119,0.8861111111111111,-4.11
506120,0.8888888888888888,-4.12
506121,0.8916666666666667,-4.115
506122,0.8944444444444445,-4.12
506123,0.8972222222222223,-4.125
506124,0.9,-4.115
506125,0.9027777777777778,-4.1
506126,0.9055555555555556,-4.095
506127,0.9083333333333333,-4.085
506128,0.9111111111111111,-4.105
506129,0.9138888888888889,-4.1
506130,0.9166666666666666,-4.1
506131,0.9194444444444444,-4.105
506132,0.9222222222222223,-4.115
506133,0.925,-4.115
506134,0.9277777777777778,-4.12
506135,0.9305555555555556,-4.12
506136,0.9333333333333333,-4.115
506137,0.9361111111111111,-4.105
506138,0.9388888888888889,-4.095
506139,0.9416666666666667,-4.11
506140,0.9444444444444444,-4.11
506141,0.9472222222222222,-4.125
506142,0.95,-4.145
506143,0.9527777777777777,-4.17
506144,0.9555555555555556,-4.16
506145,0.9583333333333334,-4.175
506146,0.9611111111111111,-4.2
506147,0.9638888888888889,-4.2
506148,0.9666666666666667,-4.19
506149,0.9694444444444444,-4.17
506150,0.9722222222222222,-4.18
506151,0.975,-4.165
506152,0.9777777777777777,-4.175
506153,0.9805555555555555,-4.185
506154,0.9833333333333333,-4.19
506155,0.9861111111111112,-4.215
506156,0.9888888888888889,-4.225
506157,0.9916666666666667,-4.24
506158,0.9944444444444445,-4.24
506159,0.9972222222222222,-4.25
506160,1.0,-4.24
506161,1.0027777777777778,-4.22
506162,1.0055555555555555,-4.2
506163,1.0083333333333333,-4.215
506164,1.011111111111111,-4.2
506165,1.0138888888888888,-4.23
506166,1.0166666666666666,-4.225
506167,1.0194444444444444,-4.22
506168,1.0222222222222221,-4.24
506169,1.025,-4.225
506170,1.0277777777777777,-4.25
506171,1.0305555555555554,-4.225
506172,1.0333333333333334,-4.225
506173,1.0361111111111112,-4.22
506174,1.038888888888889,-4.2
506175,1.0416666666666667,-4.185
506176,1.0444444444444445,-4.185
506177,1.0472222222222223,-4.2
506178,1.05,-4.19
506179,1.0527777777777778,-4.2
506180,1.0555555555555556,-4.21
506181,1.0583333333333333,-4.215
506182,1.0611111111111111,-4.2
506183,1.0638888888888889,-4.195
506184,1.0666666666666667,-4.185
506185,1.0694444444444444,-4.165
506186,1.0722222222222222,-4.155
506187,1.075,-4.155
506188,1.0777777777777777,-4.15
506189,1.0805555555555555,-4.15
506190,1.0833333333333333,-4.17
506191,1.086111111111111,-4.175
506192,1.0888888888888888,-4.18
506193,1.0916666666666666,-4.185
506194,1.0944444444444446,-4.17
506195,1.0972222222222223,-4.175
506196,1.1,-4.16
506197,1.1027777777777779,-4.14
506198,1.1055555555555556,-4.13
506199,1.1083333333333334,-4.115
506200,1.1111111111111112,-4.125
506201,1.113888888888889,-4.12
506202,1.1166666666666667,-4.125
506203,1.1194444444444445,-4.13
506204,1.1222222222222222,-4.135
506205,1.125,-4.135
506206,1.1277777777777778,-4.14
506207,1.1305555555555555,-4.125
506208,1.1333333333333333,-4.11
506209,1.136111111111111,-4.085
506210,1.1388888888888888,-4.06
506211,1.1416666666666666,-4.06
506212,1.1444444444444444,-4.06
506213,1.1472222222222221,-4.055
506214,1.15,-4.05
506215,1.1527777777777777,-4.05
506216,1.1555555555555554,-4.065
506217,1.1583333333333334,-4.075
506218,1.1611111111111112,-4.08
506219,1.163888888888889,-4.065
506220,1.1666666666666667,-4.045
506221,1.1694444444444445,-4.03
506222,1.1722222222222223,-4.025
506223,1.175,-4.005
506224,1.1777777777777778,-4.025
506225,1.1805555555555556,-3.995
506226,1.1833333333333333,-4.015
506227,1.1861111111111111,-4.02
506228,1.1888888888888889,-4.02
506229,1.1916666666666667,-4.03
506230,1.1944444444444444,-4.045
506231,1.1972222222222222,-4.035
506232,1.2,-4.025
506233,1.2027777777777777,-4.015
506234,1.2055555555555555,-4.005
506235,1.2083333333333333,-3.985
506236,1.211111111111111,-3.985
506237,1.2138888888888888,-3.995
506238,1.2166666666666666,-4.025
506239,1.2194444444444446,-4.045
506240,1.2222222222222223,-4.05
506241,1.225,-4.035
506242,1.2277777777777779,-4.03
506243,1.2305555555555556,-4.055
506244,1.2333333333333334,-4.03
506245,1.2361111111111112,-4.025
506246,1.238888888888889,-4.01
506247,1.2416666666666667,-4.0
506248,1.2444444444444445,-3.99
506249,1.2472222222222222,-4.0
506250,1.25,-4.0
506251,1.2527777777777778,-4.015
506252,1.2555555555555555,-4.025
506253,1.2583333333333333,-4.02
506254,1.261111111111111,-4.02
506255,1.2638888888888888,-4.015
506256,1.2666666666666666,-3.995
506257,1.2694444444444444,-3.99
506258,1.2722222222222221,-3.965
506259,1.275,-3.945
506260,1.2777777777777777,-3.96
506261,1.2805555555555554,-3.95
506262,1.2833333333333334,-3.95
506263,1.2861111111111112,-3.935
506264,1.288888888888889,-3.93
506265,1.2916666666666667,-3.905
506266,1.2944444444444445,-3.825
506267,1.2972222222222223,-3.71
506268,1.3,-3.56
506269,1.3027777777777778,-3.36
506270,1.3055555555555556,-3.12
506271,1.3083333333333333,-2.805
506272,1.3111111111111111,-2.44
506273,1.3138888888888889,-2.03
506274,1.3166666666666667,-1.68
506275,1.3194444444444444,-1.545
506276,1.3222222222222222,-1.63
506277,1.325,-2.0
506278,1.3277777777777777,-2.62
506279,1.3305555555555555,-3.26
506280,1.3333333333333333,-3.75
506281,1.336111111111111,-4.055
506282,1.3388888888888888,-4.14
506283,1.3416666666666666,-4.08
506284,1.3444444444444446,-3.95
506285,1.3472222222222223,-3.845
506286,1.35,-3.755
506287,1.3527777777777779,-3.75
506288,1.3555555555555556,-3.755
506289,1.3583333333333334,-3.795
506290,1.3611111111111112,-3.82
506291,1.363888888888889,-3.83
506292,1.3666666666666667,-3.82
506293,1.3694444444444445,-3.84
506294,1.3722222222222222,-3.82
506295,1.375,-3.815
506296,1.3777777777777778,-3.81
506297,1.3805555555555555,-3.805
506298,1.3833333333333333,-3.815
506299,1.386111111111111,-3.825
506300,1.3888888888888888,-3.84
506301,1.3916666666666666,-3.855
506302,1.3944444444444444,-3.845
506303,1.3972222222222221,-3.85
506304,1.4,-3.845
506305,1.4027777777777777,-3.83
506306,1.4055555555555554,-3.8
506307,1.4083333333333334,-3.79
506308,1.4111111111111112,-3.8
506309,1.413888888888889,-3.815
506310,1.4166666666666667,-3.795
506311,1.4194444444444445,-3.81
506312,1.4222222222222223,-3.83
506313,1.425,-3.83
506314,1.4277777777777778,-3.825
506315,1.4305555555555556,-3.82
506316,1.4333333333333333,-3.785
506317,1.4361111111111111,-3.785
506318,1.4388888888888889,-3.775
506319,1.4416666666666667,-3.75
506320,1.4444444444444444,-3.76
506321,1.4472222222222222,-3.765
506322,1.45,-3.765
506323,1.4527777777777777,-3.765
506324,1.4555555555555555,-3.77
506325,1.4583333333333333,-3.775
506326,1.461111111111111,-3.77
506327,1.4638888888888888,-3.765
506328,1.4666666666666666,-3.75
506329,1.4694444444444446,-3.72
506330,1.4722222222222223,-3.715
506331,1.475,-3.685
506332,1.4777777777777779,-3.685
506333,1.4805555555555556,-3.665
506334,1.4833333333333334,-3.66
506335,1.4861111111111112,-3.665
506336,1.488888888888889,-3.675
506337,1.4916666666666667,-3.675
506338,1.4944444444444445,-3.66
506339,1.4972222222222222,-3.655
506340,1.5,-3.63
506341,1.5027777777777778,-3.61
506342,1.5055555555555555,-3.585
506343,1.5083333333333333,-3.575
506344,1.511111111111111,-3.56
506345,1.5138888888888888,-3.57
506346,1.5166666666666666,-3.55
506347,1.5194444444444444,-3.55
506348,1.5222222222222221,-3.545
506349,1.525,-3.54
506350,1.5277777777777777,-3.54
506351,1.5305555555555554,-3.535
506352,1.5333333333333334,-3.51
506353,1.5361111111111112,-3.485
506354,1.538888888888889,-3.495
506355,1.5416666666666667,-3.465
506356,1.5444444444444445,-3.445
506357,1.5472222222222223,-3.465
506358,1.55,-3.465
506359,1.5527777777777778,-3.485
506360,1.5555555555555556,-3.495
506361,1.5583333333333333,-3.475
506362,1.5611111111111111,-3.475
506363,1.5638888888888889,-3.47
506364,1.5666666666666667,-3.47
506365,1.5694444444444444,-3.47
506366,1.5722222222222222,-3.47
506367,1.575,-3.455
506368,1.5777777777777777,-3.46
506369,1.5805555555555555,-3.47
506370,1.5833333333333333,-3.475
506371,1.586111111111111,-3.49
506372,1.5888888888888888,-3.51
506373,1.5916666666666666,-3.525
506374,1.5944444444444446,-3.525
506375,1.5972222222222223,-3.535
506376,1.6,-3.545
506377,1.6027777777777779,-3.545
506378,1.6055555555555556,-3.545
506379,1.6083333333333334,-3.54
506380,1.6111111111111112,-3.535
506381,1.613888888888889,-3.525
506382,1.6166666666666667,-3.52
506383,1.6194444444444445,-3.52
506384,1.6222222222222222,-3.535
506385,1.625,-3.54
506386,1.6277777777777778,-3.535
506387,1.6305555555555555,-3.535
506388,1.6333333333333333,-3.525
506389,1.636111111111111,-3.505
506390,1.6388888888888888,-3.52
506391,1.6416666666666666,-3.51
506392,1.6444444444444444,-3.5
506393,1.6472222222222221,-3.49
506394,1.65,-3.49
506395,1.6527777777777777,-3.505
506396,1.6555555555555554,-3.515
506397,1.6583333333333334,-3.505
506398,1.6611111111111112,-3.51
506399,1.663888888888889,-3.485
506400,1.6666666666666667,-3.48
506401,1.6694444444444445,-3.475
506402,1.6722222222222223,-3.465
506403,1.675,-3.455
506404,1.6777777777777778,-3.455
506405,1.6805555555555556,-3.43
506406,1.6833333333333333,-3.43
506407,1.6861111111111111,-3.44
506408,1.6888888888888889,-3.45
506409,1.6916666666666667,-3.455
506410,1.6944444444444444,-3.455
506411,1.6972222222222222,-3.455
506412,1.7,-3.44
506413,1.7027777777777777,-3.425
506414,1.7055555555555555,-3.42
506415,1.7083333333333333,-3.405
506416,1.711111111111111,-3.415
506417,1.7138888888888888,-3.4
506418,1.7166666666666666,-3.42
506419,1.7194444444444446,-3.43
506420,1.7222222222222223,-3.435
506421,1.725,-3.435
506422,1.7277777777777779,-3.44
506423,1.7305555555555556,-3.435
506424,1.7333333333333334,-3.43
506425,1.7361111111111112,-3.43
506426,1.738888888888889,-3.405
506427,1.7416666666666667,-3.395
506428,1.7444444444444445,-3.4
506429,1.7472222222222222,-3.405
506430,1.75,-3.43
506431,1.7527777777777778,-3.425
506432,1.7555555555555555,-3.44
506433,1.7583333333333333,-3.425
506434,1.761111111111111,-3.42
506435,1.7638888888888888,-3.44
506436,1.7666666666666666,-3.405
506437,1.7694444444444444,-3.395
506438,1.7722222222222221,-3.39
506439,1.775,-3.375
506440,1.7777777777777777,-3.37
506441,1.7805555555555554,-3.37
506442,1.7833333333333334,-3.385
506443,1.7861111111111112,-3.385
506444,1.788888888888889,-3.4
506445,1.7916666666666667,-3.405
506446,1.7944444444444445,-3.405
506447,1.7972222222222223,-3.41
506448,1.8,-3.385
506449,1.8027777777777778,-3.365
506450,1.8055555555555556,-3.35
506451,1.8083333333333333,-3.345
506452,1.8111111111111111,-3.335
506453,1.8138888888888889,-3.36
506454,1.8166666666666667,-3.37
506455,1.8194444444444444,-3.37
506456,1.8222222222222222,-3.38
506457,1.825,-3.375
506458,1.8277777777777777,-3.37
506459,1.8305555555555555,-3.36
506460,1.8333333333333333,-3.355
506461,1.836111111111111,-3.34
506462,1.8388888888888888,-3.335
506463,1.8416666666666666,-3.32
506464,1.8444444444444446,-3.32
506465,1.8472222222222223,-3.305
506466,1.85,-3.315
506467,1.8527777777777779,-3.33
506468,1.8555555555555556,-3.325
506469,1.8583333333333334,-3.345
506470,1.8611111111111112,-3.35
506471,1.863888888888889,-3.36
506472,1.8666666666666667,-3.32
506473,1.8694444444444445,-3.28
506474,1.8722222222222222,-3.285
506475,1.875,-3.26
506476,1.8777777777777778,-3.26
506477,1.8805555555555555,-3.245
506478,1.8833333333333333,-3.25
506479,1.886111111111111,-3.245
506480,1.8888888888888888,-3.25
506481,1.8916666666666666,-3.245
506482,1.8944444444444444,-3.24
506483,1.8972222222222221,-3.235
506484,1.9,-3.23
506485,1.9027777777777777,-3.23
506486,1.9055555555555554,-3.2
506487,1.9083333333333334,-3.185
506488,1.9111111111111112,-3.165
506489,1.913888888888889,-3.145
506490,1.9166666666666667,-3.16
506491,1.9194444444444445,-3.145
506492,1.9222222222222223,-3.145
506493,1.925,-3.15
506494,1.9277777777777778,-3.15
506495,1.9305555555555556,-3.165
506496,1.9333333333333333,-3.14
506497,1.9361111111111111,-3.135
506498,1.9388888888888889,-3.125
506499,1.9416666666666667,-3.12
506500,1.9444444444444444,-3.125
506501,1.9472222222222222,-3.13
506502,1.95,-3.145
506503,1.9527777777777777,-3.16
506504,1.9555555555555555,-3.18
506505,1.9583333333333333,-3.16
506506,1.961111111111111,-3.17
506507,1.9638888888888888,-3.195
506508,1.9666666666666666,-3.18
506509,1.9694444444444446,-3.16
506510,1.9722222222222223,-3.15
506511,1.975,-3.15
506512,1.9777777777777779,-3.135
506513,1.9805555555555556,-3.145
506514,1.9833333333333334,-3.145
506515,1.9861111111111112,-3.165
506516,1.988888888888889,-3.155
506517,1.9916666666666667,-3.155
506518,1.9944444444444445,-3.155
506519,1.9972222222222222,-3.155
506520,2.0,-3.145
506521,2.0027777777777778,-3.115
506522,2.0055555555555555,-3.1
506523,2.0083333333333333,-3.065
506524,2.011111111111111,-3.07
506525,2.013888888888889,-3.07
506526,2.0166666666666666,-3.08
506527,2.0194444444444444,-3.075
506528,2.022222222222222,-3.075
506529,2.025,-3.06
506530,2.0277777777777777,-3.005
506531,2.0305555555555554,-2.905
506532,2.033333333333333,-2.745
506533,2.036111111111111,-2.54
506534,2.0388888888888888,-2.26
506535,2.0416666666666665,-1.92
506536,2.0444444444444443,-1.525
506537,2.047222222222222,-1.13
506538,2.05,-0.735
506539,2.0527777777777776,-0.4
506540,2.0555555555555554,-0.23
506541,2.058333333333333,-0.185
506542,2.061111111111111,-0.4
506543,2.063888888888889,-0.865
506544,2.066666666666667,-1.495
506545,2.0694444444444446,-2.135
506546,2.0722222222222224,-2.775
506547,2.075,-3.15
506548,2.077777777777778,-3.295
506549,2.0805555555555557,-3.25
506550,2.0833333333333335,-3.105
506551,2.0861111111111112,-2.96
506552,2.088888888888889,-2.87
506553,2.091666666666667,-2.815
506554,2.0944444444444446,-2.82
506555,2.0972222222222223,-2.85
506556,2.1,-2.885
506557,2.102777777777778,-2.895
506558,2.1055555555555556,-2.9
506559,2.1083333333333334,-2.895
506560,2.111111111111111,-2.895
506561,2.113888888888889,-2.905
506562,2.1166666666666667,-2.9
506563,2.1194444444444445,-2.91
506564,2.1222222222222222,-2.92
506565,2.125,-2.91
506566,2.1277777777777778,-2.92
506567,2.1305555555555555,-2.9
506568,2.1333333333333333,-2.9
506569,2.136111111111111,-2.875
506570,2.138888888888889,-2.87
506571,2.1416666666666666,-2.845
506572,2.1444444444444444,-2.84
506573,2.147222222222222,-2.85
506574,2.15,-2.845
506575,2.1527777777777777,-2.855
506576,2.1555555555555554,-2.865
506577,2.158333333333333,-2.87
506578,2.161111111111111,-2.875
506579,2.1638888888888888,-2.84
506580,2.1666666666666665,-2.825
506581,2.1694444444444443,-2.815
506582,2.172222222222222,-2.785
506583,2.175,-2.76
506584,2.1777777777777776,-2.76
506585,2.1805555555555554,-2.755
506586,2.183333333333333,-2.75
506587,2.186111111111111,-2.76
506588,2.188888888888889,-2.76
506589,2.191666666666667,-2.78
506590,2.1944444444444446,-2.76
506591,2.1972222222222224,-2.76
506592,2.2,-2.76
506593,2.202777777777778,-2.735
506594,2.2055555555555557,-2.69
506595,2.2083333333333335,-2.65
506596,2.2111111111111112,-2.655
506597,2.213888888888889,-2.64
506598,2.216666666666667,-2.635
506599,2.2194444444444446,-2.63
506600,2.2222222222222223,-2.635
506601,2.225,-2.62
506602,2.227777777777778,-2.63
506603,2.2305555555555556,-2.62
506604,2.2333333333333334,-2.59
506605,2.236111111111111,-2.58
506606,2.238888888888889,-2.56
506607,2.2416666666666667,-2.525
506608,2.2444444444444445,-2.5
506609,2.2472222222222222,-2.5
506610,2.25,-2.495
506611,2.2527777777777778,-2.48
506612,2.2555555555555555,-2.495
506613,2.2583333333333333,-2.485
506614,2.261111111111111,-2.48
506615,2.263888888888889,-2.48
506616,2.2666666666666666,-2.445
506617,2.2694444444444444,-2.425
506618,2.272222222222222,-2.42
506619,2.275,-2.39
506620,2.2777777777777777,-2.39
506621,2.2805555555555554,-2.385
506622,2.283333333333333,-2.39
506623,2.286111111111111,-2.39
506624,2.2888888888888888,-2.39
506625,2.2916666666666665,-2.39
506626,2.2944444444444443,-2.4
506627,2.297222222222222,-2.39
506628,2.3,-2.375
506629,2.3027777777777776,-2.385
506630,2.3055555555555554,-2.375
506631,2.308333333333333,-2.365
506632,2.311111111111111,-2.365
506633,2.313888888888889,-2.385
506634,2.316666666666667,-2.395
506635,2.3194444444444446,-2.4
506636,2.3222222222222224,-2.405
506637,2.325,-2.42
506638,2.327777777777778,-2.445
506639,2.3305555555555557,-2.455
506640,2.3333333333333335,-2.46
506641,2.3361111111111112,-2.46
506642,2.338888888888889,-2.46
506643,2.341666666666667,-2.46
506644,2.3444444444444446,-2.455
506645,2.3472222222222223,-2.46
506646,2.35,-2.46
506647,2.352777777777778,-2.47
506648,2.3555555555555556,-2.485
506649,2.3583333333333334,-2.5
506650,2.361111111111111,-2.515
506651,2.363888888888889,-2.515
506652,2.3666666666666667,-2.51
506653,2.3694444444444445,-2.52
506654,2.3722222222222222,-2.495
506655,2.375,-2.485
506656,2.3777777777777778,-2.475
506657,2.3805555555555555,-2.485
506658,2.3833333333333333,-2.5
506659,2.386111111111111,-2.505
506660,2.388888888888889,-2.5
506661,2.3916666666666666,-2.495
506662,2.3944444444444444,-2.51
506663,2.397222222222222,-2.505
506664,2.4,-2.475
506665,2.4027777777777777,-2.45
506666,2.4055555555555554,-2.425
506667,2.408333333333333,-2.43
506668,2.411111111111111,-2.405
506669,2.4138888888888888,-2.42
506670,2.4166666666666665,-2.415
506671,2.4194444444444443,-2.41
506672,2.422222222222222,-2.425
506673,2.425,-2.435
506674,2.4277777777777776,-2.43
506675,2.4305555555555554,-2.43
506676,2.433333333333333,-2.42
506677,2.436111111111111,-2.41
506678,2.438888888888889,-2.375
506679,2.441666666666667,-2.365
506680,2.4444444444444446,-2.345
506681,2.4472222222222224,-2.365
506682,2.45,-2.355
506683,2.452777777777778,-2.37
506684,2.4555555555555557,-2.375
506685,2.4583333333333335,-2.37
506686,2.4611111111111112,-2.38
506687,2.463888888888889,-2.38
506688,2.466666666666667,-2.36
506689,2.4694444444444446,-2.355
506690,2.4722222222222223,-2.35
506691,2.475,-2.32
506692,2.477777777777778,-2.315
506693,2.4805555555555556,-2.34
506694,2.4833333333333334,-2.34
506695,2.486111111111111,-2.345
506696,2.488888888888889,-2.34
506697,2.4916666666666667,-2.345
506698,2.4944444444444445,-2.345
506699,2.4972222222222222,-2.355
506700,2.5,-2.35
506701,2.5027777777777778,-2.325
506702,2.5055555555555555,-2.325
506703,2.5083333333333333,-2.305
506704,2.511111111111111,-2.315
506705,2.513888888888889,-2.315
506706,2.5166666666666666,-2.315
506707,2.5194444444444444,-2.34
506708,2.522222222222222,-2.345
506709,2.525,-2.335
506710,2.5277777777777777,-2.33
506711,2.5305555555555554,-2.325
506712,2.533333333333333,-2.315
506713,2.536111111111111,-2.275
506714,2.5388888888888888,-2.265
506715,2.5416666666666665,-2.27
506716,2.5444444444444443,-2.245
506717,2.547222222222222,-2.255
506718,2.55,-2.25
506719,2.5527777777777776,-2.26
506720,2.5555555555555554,-2.27
506721,2.558333333333333,-2.275
506722,2.561111111111111,-2.275
506723,2.563888888888889,-2.27
506724,2.566666666666667,-2.255
506725,2.5694444444444446,-2.24
506726,2.5722222222222224,-2.225
506727,2.575,-2.215
506728,2.577777777777778,-2.205
506729,2.5805555555555557,-2.2
506730,2.5833333333333335,-2.205
506731,2.5861111111111112,-2.215
506732,2.588888888888889,-2.215
506733,2.591666666666667,-2.21
506734,2.5944444444444446,-2.22
506735,2.5972222222222223,-2.215
506736,2.6,-2.2
506737,2.602777777777778,-2.195
506738,2.6055555555555556,-2.175
506739,2.6083333333333334,-2.15
506740,2.611111111111111,-2.16
506741,2.613888888888889,-2.135
506742,2.6166666666666667,-2.145
506743,2.6194444444444445,-2.13
506744,2.6222222222222222,-2.11
506745,2.625,-2.12
506746,2.6277777777777778,-2.1
506747,2.6305555555555555,-2.085
506748,2.6333333333333333,-2.08
506749,2.636111111111111,-2.06
506750,2.638888888888889,-2.045
506751,2.6416666666666666,-2.01
506752,2.6444444444444444,-1.995
506753,2.647222222222222,-2.0
506754,2.65,-1.98
506755,2.6527777777777777,-1.965
506756,2.6555555555555554,-1.96
506757,2.658333333333333,-1.955
506758,2.661111111111111,-1.96
506759,2.6638888888888888,-1.97
506760,2.6666666666666665,-1.97
506761,2.6694444444444443,-1.955
506762,2.672222222222222,-1.95
506763,2.675,-1.925
506764,2.6777777777777776,-1.93
506765,2.6805555555555554,-1.945
506766,2.683333333333333,-1.95
506767,2.686111111111111,-1.945
506768,2.688888888888889,-1.965
506769,2.691666666666667,-1.995
506770,2.6944444444444446,-2.01
506771,2.6972222222222224,-2.03
506772,2.7,-2.015
506773,2.702777777777778,-2.015
506774,2.7055555555555557,-2.025
506775,2.7083333333333335,-2.025
506776,2.7111111111111112,-2.03
506777,2.713888888888889,-2.015
506778,2.716666666666667,-2.015
506779,2.7194444444444446,-2.035
506780,2.7222222222222223,-2.025
506781,2.725,-2.025
506782,2.727777777777778,-2.02
506783,2.7305555555555556,-2.02
506784,2.7333333333333334,-2.02
506785,2.736111111111111,-1.995
506786,2.738888888888889,-1.975
506787,2.7416666666666667,-1.985
506788,2.7444444444444445,-1.97
506789,2.7472222222222222,-1.99
506790,2.75,-1.98
506791,2.7527777777777778,-1.955
506792,2.7555555555555555,-1.95
506793,2.7583333333333333,-1.9
506794,2.761111111111111,-1.84
506795,2.763888888888889,-1.725
506796,2.7666666666666666,-1.57
506797,2.7694444444444444,-1.365
506798,2.772222222222222,-1.125
506799,2.775,-0.835
506800,2.7777777777777777,-0.5
506801,2.7805555555555554,-0.145
506802,2.783333333333333,0.195
506803,2.786111111111111,0.435
506804,2.7888888888888888,0.48
506805,2.7916666666666665,0.225
506806,2.7944444444444443,-0.325
506807,2.797222222222222,-0.965
506808,2.8,-1.605
506809,2.8027777777777776,-2.245
506810,2.8055555555555554,-2.495
506811,2.808333333333333,-2.42
506812,2.811111111111111,-2.23
506813,2.813888888888889,-2.0
506814,2.816666666666667,-1.805
506815,2.8194444444444446,-1.7
506816,2.8222222222222224,-1.7
506817,2.825,-1.735
506818,2.827777777777778,-1.805
506819,2.8305555555555557,-1.86
506820,2.8333333333333335,-1.87
506821,2.8361111111111112,-1.875
506822,2.838888888888889,-1.86
506823,2.841666666666667,-1.825
506824,2.8444444444444446,-1.825
506825,2.8472222222222223,-1.81
506826,2.85,-1.81
506827,2.852777777777778,-1.82
506828,2.8555555555555556,-1.825
506829,2.8583333333333334,-1.83
506830,2.861111111111111,-1.84
506831,2.863888888888889,-1.835
506832,2.8666666666666667,-1.815
506833,2.8694444444444445,-1.805
506834,2.8722222222222222,-1.78
506835,2.875,-1.755
506836,2.8777777777777778,-1.775
506837,2.8805555555555555,-1.785
506838,2.8833333333333333,-1.77
506839,2.886111111111111,-1.78
506840,2.888888888888889,-1.76
506841,2.8916666666666666,-1.75
506842,2.8944444444444444,-1.755
506843,2.897222222222222,-1.745
506844,2.9,-1.735
506845,2.9027777777777777,-1.725
506846,2.9055555555555554,-1.705
506847,2.908333333333333,-1.665
506848,2.911111111111111,-1.665
506849,2.9138888888888888,-1.665
506850,2.9166666666666665,-1.655
506851,2.9194444444444443,-1.655
506852,2.922222222222222,-1.66
506853,2.925,-1.645
506854,2.9277777777777776,-1.66
506855,2.9305555555555554,-1.66
506856,2.933333333333333,-1.64
506857,2.936111111111111,-1.62
506858,2.938888888888889,-1.605
506859,2.941666666666667,-1.575
506860,2.9444444444444446,-1.57
506861,2.9472222222222224,-1.555
506862,2.95,-1.56
506863,2.952777777777778,-1.565
506864,2.9555555555555557,-1.565
506865,2.9583333333333335,-1.56
506866,2.9611111111111112,-1.56
506867,2.963888888888889,-1.54
506868,2.966666666666667,-1.525
506869,2.9694444444444446,-1.495
506870,2.9722222222222223,-1.47
506871,2.975,-1.45
506872,2.977777777777778,-1.43
506873,2.9805555555555556,-1.415
506874,2.9833333333333334,-1.4
506875,2.986111111111111,-1.385
506876,2.988888888888889,-1.385
506877,2.9916666666666667,-1.385
506878,2.9944444444444445,-1.385
506879,2.9972222222222222,-1.385
506880,3.0,-1.4
506881,3.0027777777777778,-1.39
506882,3.0055555555555555,-1.38
506883,3.0083333333333333,-1.34
506884,3.011111111111111,-1.33
506885,3.013888888888889,-1.325
506886,3.0166666666666666,-1.32
506887,3.0194444444444444,-1.33
506888,3.022222222222222,-1.33
506889,3.025,-1.335
506890,3.0277777777777777,-1.35
506891,3.0305555555555554,-1.345
506892,3.033333333333333,-1.345
506893,3.036111111111111,-1.34
506894,3.0388888888888888,-1.32
506895,3.0416666666666665,-1.34
506896,3.0444444444444443,-1.34
506897,3.047222222222222,-1.34
506898,3.05,-1.36
506899,3.0527777777777776,-1.385
506900,3.0555555555555554,-1.41
506901,3.058333333333333,-1.425
506902,3.061111111111111,-1.46
506903,3.063888888888889,-1.465
506904,3.066666666666667,-1.49
506905,3.0694444444444446,-1.495
506906,3.0722222222222224,-1.49
506907,3.075,-1.49
506908,3.077777777777778,-1.515
506909,3.0805555555555557,-1.52
506910,3.0833333333333335,-1.53
506911,3.0861111111111112,-1.535
506912,3.088888888888889,-1.545
506913,3.091666666666667,-1.54
506914,3.0944444444444446,-1.555
506915,3.0972222222222223,-1.55
506916,3.1,-1.565
506917,3.102777777777778,-1.555
506918,3.1055555555555556,-1.55
506919,3.1083333333333334,-1.53
506920,3.111111111111111,-1.525
506921,3.113888888888889,-1.53
506922,3.1166666666666667,-1.53
506923,3.1194444444444445,-1.52
506924,3.1222222222222222,-1.535
506925,3.125,-1.53
506926,3.1277777777777778,-1.535
506927,3.1305555555555555,-1.525
506928,3.1333333333333333,-1.505
506929,3.136111111111111,-1.495
506930,3.138888888888889,-1.47
506931,3.1416666666666666,-1.47
506932,3.1444444444444444,-1.49
506933,3.147222222222222,-1.48
506934,3.15,-1.475
506935,3.1527777777777777,-1.48
506936,3.1555555555555554,-1.47
506937,3.158333333333333,-1.47
506938,3.161111111111111,-1.485
506939,3.1638888888888888,-1.485
506940,3.1666666666666665,-1.47
506941,3.1694444444444443,-1.475
506942,3.172222222222222,-1.47
506943,3.175,-1.45
506944,3.1777777777777776,-1.44
506945,3.1805555555555554,-1.435
506946,3.183333333333333,-1.435
506947,3.186111111111111,-1.43
506948,3.188888888888889,-1.43
506949,3.191666666666667,-1.435
506950,3.1944444444444446,-1.43
506951,3.1972222222222224,-1.445
506952,3.2,-1.445
506953,3.202777777777778,-1.425
506954,3.2055555555555557,-1.44
506955,3.2083333333333335,-1.425
506956,3.2111111111111112,-1.405
506957,3.213888888888889,-1.415
506958,3.216666666666667,-1.41
506959,3.2194444444444446,-1.425
506960,3.2222222222222223,-1.44
506961,3.225,-1.43
506962,3.227777777777778,-1.43
506963,3.2305555555555556,-1.425
506964,3.2333333333333334,-1.415
506965,3.236111111111111,-1.405
506966,3.238888888888889,-1.405
506967,3.2416666666666667,-1.395
506968,3.2444444444444445,-1.405
506969,3.2472222222222222,-1.41
506970,3.25,-1.425
506971,3.2527777777777778,-1.425
506972,3.2555555555555555,-1.425
506973,3.2583333333333333,-1.42
506974,3.261111111111111,-1.415
506975,3.263888888888889,-1.41
506976,3.2666666666666666,-1.405
506977,3.2694444444444444,-1.39
506978,3.272222222222222,-1.39
506979,3.275,-1.375
506980,3.2777777777777777,-1.38
506981,3.2805555555555554,-1.375
506982,3.283333333333333,-1.39
506983,3.286111111111111,-1.39
506984,3.2888888888888888,-1.385
506985,3.2916666666666665,-1.385
506986,3.2944444444444443,-1.39
506987,3.297222222222222,-1.39
506988,3.3,-1.395
506989,3.3027777777777776,-1.385
506990,3.3055555555555554,-1.395
506991,3.308333333333333,-1.36
506992,3.311111111111111,-1.355
506993,3.313888888888889,-1.35
506994,3.316666666666667,-1.36
506995,3.3194444444444446,-1.36
506996,3.3222222222222224,-1.365
506997,3.325,-1.36
506998,3.327777777777778,-1.37
506999,3.3305555555555557,-1.37
507000,3.3333333333333335,-1.355
507001,3.3361111111111112,-1.345
507002,3.338888888888889,-1.335
507003,3.341666666666667,-1.33
507004,3.3444444444444446,-1.32
507005,3.3472222222222223,-1.32
507006,3.35,-1.32
507007,3.352777777777778,-1.325
507008,3.3555555555555556,-1.3
507009,3.3583333333333334,-1.3
507010,3.361111111111111,-1.28
507011,3.363888888888889,-1.255
507012,3.3666666666666667,-1.245
507013,3.3694444444444445,-1.215
507014,3.3722222222222222,-1.195
507015,3.375,-1.175
507016,3.3777777777777778,-1.155
507017,3.3805555555555555,-1.16
507018,3.3833333333333333,-1.165
507019,3.386111111111111,-1.175
507020,3.388888888888889,-1.19
507021,3.3916666666666666,-1.185
507022,3.3944444444444444,-1.18
507023,3.397222222222222,-1.155
507024,3.4,-1.14
507025,3.4027777777777777,-1.11
507026,3.4055555555555554,-1.105
507027,3.408333333333333,-1.09
507028,3.411111111111111,-1.1
507029,3.4138888888888888,-1.115
507030,3.4166666666666665,-1.11
507031,3.4194444444444443,-1.13
507032,3.422222222222222,-1.135
507033,3.425,-1.14
507034,3.4277777777777776,-1.155
507035,3.4305555555555554,-1.155
507036,3.433333333333333,-1.16
507037,3.436111111111111,-1.17
507038,3.438888888888889,-1.185
507039,3.441666666666667,-1.19
507040,3.4444444444444446,-1.215
507041,3.4472222222222224,-1.23
507042,3.45,-1.25
507043,3.452777777777778,-1.28
507044,3.4555555555555557,-1.295
507045,3.4583333333333335,-1.285
507046,3.4611111111111112,-1.295
507047,3.463888888888889,-1.285
507048,3.466666666666667,-1.28
507049,3.4694444444444446,-1.275
507050,3.4722222222222223,-1.26
507051,3.475,-1.24
507052,3.477777777777778,-1.235
507053,3.4805555555555556,-1.24
507054,3.4833333333333334,-1.24
507055,3.486111111111111,-1.26
507056,3.488888888888889,-1.245
507057,3.4916666666666667,-1.255
507058,3.4944444444444445,-1.24
507059,3.4972222222222222,-1.235
507060,3.5,-1.225
507061,3.5027777777777778,-1.19
507062,3.5055555555555555,-1.145
507063,3.5083333333333333,-1.04
507064,3.511111111111111,-0.92
507065,3.513888888888889,-0.74
507066,3.5166666666666666,-0.535
507067,3.5194444444444444,-0.305
507068,3.522222222222222,-0.07
507069,3.525,0.195
507070,3.5277777777777777,0.5
507071,3.5305555555555554,0.84
507072,3.533333333333333,1.14
507073,3.536111111111111,1.385
507074,3.5388888888888888,1.485
507075,3.5416666666666665,1.41
507076,3.5444444444444443,1.035
507077,3.547222222222222,0.395
507078,3.55,-0.245
507079,3.5527777777777776,-0.885
507080,3.5555555555555554,-1.525
507081,3.558333333333333,-1.81
507082,3.561111111111111,-1.77
507083,3.563888888888889,-1.53
507084,3.566666666666667,-1.28
507085,3.5694444444444446,-1.05
507086,3.5722222222222224,-0.945
507087,3.575,-0.925
507088,3.577777777777778,-0.95
507089,3.5805555555555557,-1.025
507090,3.5833333333333335,-1.07
507091,3.5861111111111112,-1.12
507092,3.588888888888889,-1.125
507093,3.591666666666667,-1.125
507094,3.5944444444444446,-1.105
507095,3.5972222222222223,-1.105
507096,3.6,-1.105
507097,3.602777777777778,-1.105
507098,3.6055555555555556,-1.08
507099,3.6083333333333334,-1.06
507100,3.611111111111111,-1.05
507101,3.613888888888889,-1.055
507102,3.6166666666666667,-1.05
507103,3.6194444444444445,-1.045
507104,3.6222222222222222,-1.05
507105,3.625,-1.04
507106,3.6277777777777778,-1.04
507107,3.6305555555555555,-1.03
507108,3.6333333333333333,-1.015
507109,3.636111111111111,-1.015
507110,3.638888888888889,-0.99
507111,3.6416666666666666,-0.97
507112,3.6444444444444444,-0.965
507113,3.647222222222222,-0.965
507114,3.65,-0.955
507115,3.6527777777777777,-0.965
507116,3.6555555555555554,-0.97
507117,3.658333333333333,-0.96
507118,3.661111111111111,-0.95
507119,3.6638888888888888,-0.98
507120,3.6666666666666665,-0.94
507121,3.6694444444444443,-0.92
507122,3.672222222222222,-0.91
507123,3.675,-0.885
507124,3.6777777777777776,-0.875
507125,3.6805555555555554,-0.855
507126,3.683333333333333,-0.855
507127,3.686111111111111,-0.86
507128,3.688888888888889,-0.865
507129,3.691666666666667,-0.87
507130,3.6944444444444446,-0.86
507131,3.6972222222222224,-0.85
507132,3.7,-0.845
507133,3.702777777777778,-0.815
507134,3.7055555555555557,-0.785
507135,3.7083333333333335,-0.765
507136,3.7111111111111112,-0.75
507137,3.713888888888889,-0.735
507138,3.716666666666667,-0.725
507139,3.7194444444444446,-0.71
507140,3.7222222222222223,-0.71
507141,3.725,-0.685
507142,3.727777777777778,-0.685
507143,3.7305555555555556,-0.675
507144,3.7333333333333334,-0.655
507145,3.736111111111111,-0.65
507146,3.738888888888889,-0.625
507147,3.7416666666666667,-0.59
507148,3.7444444444444445,-0.565
507149,3.7472222222222222,-0.54
507150,3.75,-0.515
507151,3.7527777777777778,-0.51
507152,3.7555555555555555,-0.495
507153,3.7583333333333333,-0.505
507154,3.761111111111111,-0.53
507155,3.763888888888889,-0.55
507156,3.7666666666666666,-0.565
507157,3.7694444444444444,-0.55
507158,3.772222222222222,-0.56
507159,3.775,-0.54
507160,3.7777777777777777,-0.53
507161,3.7805555555555554,-0.53
507162,3.783333333333333,-0.535
507163,3.786111111111111,-0.55
507164,3.7888888888888888,-0.58
507165,3.7916666666666665,-0.6
507166,3.7944444444444443,-0.63
507167,3.797222222222222,-0.66
507168,3.8,-0.655
507169,3.8027777777777776,-0.64
507170,3.8055555555555554,-0.63
507171,3.808333333333333,-0.625
507172,3.811111111111111,-0.615
507173,3.813888888888889,-0.635
507174,3.816666666666667,-0.64
507175,3.8194444444444446,-0.665
507176,3.8222222222222224,-0.69
507177,3.825,-0.71
507178,3.827777777777778,-0.725
507179,3.8305555555555557,-0.735
507180,3.8333333333333335,-0.76
507181,3.8361111111111112,-0.75
507182,3.838888888888889,-0.735
507183,3.841666666666667,-0.71
507184,3.8444444444444446,-0.695
507185,3.8472222222222223,-0.7
507186,3.85,-0.705
507187,3.852777777777778,-0.72
507188,3.8555555555555556,-0.72
507189,3.8583333333333334,-0.74
507190,3.861111111111111,-0.75
507191,3.863888888888889,-0.75
507192,3.8666666666666667,-0.72
507193,3.8694444444444445,-0.715
507194,3.8722222222222222,-0.71
507195,3.875,-0.705
507196,3.8777777777777778,-0.7
507197,3.8805555555555555,-0.695
507198,3.8833333333333333,-0.725
507199,3.886111111111111,-0.725
507200,3.888888888888889,-0.715
507201,3.8916666666666666,-0.71
507202,3.8944444444444444,-0.725
507203,3.897222222222222,-0.715
507204,3.9,-0.71
507205,3.9027777777777777,-0.71
507206,3.9055555555555554,-0.705
507207,3.908333333333333,-0.7
507208,3.911111111111111,-0.695
507209,3.9138888888888888,-0.69
507210,3.9166666666666665,-0.695
507211,3.9194444444444443,-0.715
507212,3.922222222222222,-0.715
507213,3.925,-0.72
507214,3.9277777777777776,-0.725
507215,3.9305555555555554,-0.72
507216,3.933333333333333,-0.715
507217,3.936111111111111,-0.71
507218,3.938888888888889,-0.7
507219,3.941666666666667,-0.7
507220,3.9444444444444446,-0.68
507221,3.9472222222222224,-0.685
507222,3.95,-0.7
507223,3.952777777777778,-0.705
507224,3.9555555555555557,-0.715
507225,3.9583333333333335,-0.73
507226,3.9611111111111112,-0.72
507227,3.963888888888889,-0.735
507228,3.966666666666667,-0.73
507229,3.9694444444444446,-0.73
507230,3.9722222222222223,-0.735
507231,3.975,-0.71
507232,3.977777777777778,-0.69
507233,3.9805555555555556,-0.7
507234,3.9833333333333334,-0.71
507235,3.986111111111111,-0.715
507236,3.988888888888889,-0.725
507237,3.9916666666666667,-0.745
507238,3.9944444444444445,-0.745
507239,3.9972222222222222,-0.75
507240,4.0,-0.745
507241,4.002777777777778,-0.715
507242,4.0055555555555555,-0.73
507243,4.008333333333334,-0.705
507244,4.011111111111111,-0.695
507245,4.013888888888889,-0.71
507246,4.016666666666667,-0.705
507247,4.019444444444445,-0.725
507248,4.022222222222222,-0.715
507249,4.025,-0.735
507250,4.027777777777778,-0.72
507251,4.030555555555556,-0.735
507252,4.033333333333333,-0.745
507253,4.036111111111111,-0.725
507254,4.038888888888889,-0.725
507255,4.041666666666667,-0.715
507256,4.044444444444444,-0.685
507257,4.0472222222222225,-0.685
507258,4.05,-0.7
507259,4.052777777777778,-0.69
507260,4.055555555555555,-0.7
507261,4.058333333333334,-0.72
507262,4.061111111111111,-0.725
507263,4.063888888888889,-0.73
507264,4.066666666666666,-0.72
507265,4.069444444444445,-0.695
507266,4.072222222222222,-0.675
507267,4.075,-0.65
507268,4.0777777777777775,-0.645
507269,4.080555555555556,-0.65
507270,4.083333333333333,-0.66
507271,4.086111111111111,-0.645
507272,4.088888888888889,-0.65
507273,4.091666666666667,-0.645
507274,4.094444444444444,-0.645
507275,4.097222222222222,-0.61
507276,4.1,-0.58
507277,4.102777777777778,-0.565
507278,4.105555555555555,-0.55
507279,4.108333333333333,-0.545
507280,4.111111111111111,-0.535
507281,4.113888888888889,-0.54
507282,4.116666666666666,-0.55
507283,4.1194444444444445,-0.555
507284,4.122222222222222,-0.55
507285,4.125,-0.54
507286,4.127777777777778,-0.535
507287,4.1305555555555555,-0.515
507288,4.133333333333334,-0.49
507289,4.136111111111111,-0.48
507290,4.138888888888889,-0.465
507291,4.141666666666667,-0.465
507292,4.144444444444445,-0.475
507293,4.147222222222222,-0.495
507294,4.15,-0.49
507295,4.152777777777778,-0.515
507296,4.155555555555556,-0.51
507297,4.158333333333333,-0.53
507298,4.161111111111111,-0.53
507299,4.163888888888889,-0.54
507300,4.166666666666667,-0.565
507301,4.169444444444444,-0.55
507302,4.1722222222222225,-0.585
507303,4.175,-0.6
507304,4.177777777777778,-0.61
507305,4.180555555555555,-0.62
507306,4.183333333333334,-0.64
507307,4.186111111111111,-0.67
507308,4.188888888888889,-0.67
507309,4.191666666666666,-0.7
507310,4.194444444444445,-0.7
507311,4.197222222222222,-0.695
507312,4.2,-0.675
507313,4.2027777777777775,-0.67
507314,4.205555555555556,-0.64
507315,4.208333333333333,-0.625
507316,4.211111111111111,-0.62
507317,4.213888888888889,-0.62
507318,4.216666666666667,-0.62
507319,4.219444444444444,-0.64
507320,4.222222222222222,-0.635
507321,4.225,-0.645
507322,4.227777777777778,-0.63
507323,4.230555555555555,-0.655
507324,4.233333333333333,-0.66
507325,4.236111111111111,-0.625
507326,4.238888888888889,-0.585
507327,4.241666666666666,-0.525
507328,4.2444444444444445,-0.445
507329,4.247222222222222,-0.33
507330,4.25,-0.17
507331,4.252777777777778,0.05
507332,4.2555555555555555,0.3
507333,4.258333333333334,0.575
507334,4.261111111111111,0.915
507335,4.263888888888889,1.305
507336,4.266666666666667,1.69
507337,4.269444444444445,2.045
507338,4.272222222222222,2.29
507339,4.275,2.365
507340,4.277777777777778,2.175
507341,4.280555555555556,1.675
507342,4.283333333333333,1.035
507343,4.286111111111111,0.395
507344,4.288888888888889,-0.245
507345,4.291666666666667,-0.885
507346,4.294444444444444,-1.335
507347,4.2972222222222225,-1.24
507348,4.3,-0.98
507349,4.302777777777778,-0.665
507350,4.305555555555555,-0.45
507351,4.308333333333334,-0.335
507352,4.311111111111111,-0.32
507353,4.313888888888889,-0.385
507354,4.316666666666666,-0.46
507355,4.319444444444445,-0.55
507356,4.322222222222222,-0.585
507357,4.325,-0.595
507358,4.3277777777777775,-0.6
507359,4.330555555555556,-0.58
507360,4.333333333333333,-0.565
507361,4.336111111111111,-0.545
507362,4.338888888888889,-0.535
507363,4.341666666666667,-0.545
507364,4.344444444444444,-0.515
507365,4.347222222222222,-0.515
507366,4.35,-0.525
507367,4.352777777777778,-0.52
507368,4.355555555555555,-0.525
507369,4.358333333333333,-0.55
507370,4.361111111111111,-0.54
507371,4.363888888888889,-0.545
507372,4.366666666666666,-0.525
507373,4.3694444444444445,-0.515
507374,4.372222222222222,-0.5
507375,4.375,-0.5
507376,4.377777777777778,-0.47
507377,4.3805555555555555,-0.48
507378,4.383333333333334,-0.48
507379,4.386111111111111,-0.48
507380,4.388888888888889,-0.465
507381,4.391666666666667,-0.475
507382,4.394444444444445,-0.465
507383,4.397222222222222,-0.465
507384,4.4,-0.44
507385,4.402777777777778,-0.435
507386,4.405555555555556,-0.42
507387,4.408333333333333,-0.405
507388,4.411111111111111,-0.39
507389,4.413888888888889,-0.385
507390,4.416666666666667,-0.39
507391,4.419444444444444,-0.395
507392,4.4222222222222225,-0.385
507393,4.425,-0.385
507394,4.427777777777778,-0.375
507395,4.430555555555555,-0.335
507396,4.433333333333334,-0.35
507397,4.436111111111111,-0.32
507398,4.438888888888889,-0.31
507399,4.441666666666666,-0.295
507400,4.444444444444445,-0.275
507401,4.447222222222222,-0.26
507402,4.45,-0.245
507403,4.4527777777777775,-0.245
507404,4.455555555555556,-0.235
507405,4.458333333333333,-0.245
507406,4.461111111111111,-0.25
507407,4.463888888888889,-0.25
507408,4.466666666666667,-0.23
507409,4.469444444444444,-0.22
507410,4.472222222222222,-0.195
507411,4.475,-0.175
507412,4.477777777777778,-0.17
507413,4.480555555555555,-0.16
507414,4.483333333333333,-0.16
507415,4.486111111111111,-0.17
507416,4.488888888888889,-0.18
507417,4.491666666666666,-0.185
507418,4.4944444444444445,-0.17
507419,4.497222222222222,-0.17
507420,4.5,-0.175
507421,4.502777777777778,-0.155
507422,4.5055555555555555,-0.16
507423,4.508333333333334,-0.16
507424,4.511111111111111,-0.16
507425,4.513888888888889,-0.175
507426,4.516666666666667,-0.195
507427,4.519444444444445,-0.2
507428,4.522222222222222,-0.21
507429,4.525,-0.225
507430,4.527777777777778,-0.225
507431,4.530555555555556,-0.245
507432,4.533333333333333,-0.26
507433,4.536111111111111,-0.265
507434,4.538888888888889,-0.27
507435,4.541666666666667,-0.275
507436,4.544444444444444,-0.285
507437,4.5472222222222225,-0.31
507438,4.55,-0.35
507439,4.552777777777778,-0.35
507440,4.555555555555555,-0.365
507441,4.558333333333334,-0.38
507442,4.561111111111111,-0.4
507443,4.563888888888889,-0.415
507444,4.566666666666666,-0.42
507445,4.569444444444445,-0.425
507446,4.572222222222222,-0.425
507447,4.575,-0.415
507448,4.5777777777777775,-0.41
507449,4.580555555555556,-0.405
507450,4.583333333333333,-0.42
507451,4.586111111111111,-0.415
507452,4.588888888888889,-0.415
507453,4.591666666666667,-0.435
507454,4.594444444444444,-0.435
507455,4.597222222222222,-0.43
507456,4.6,-0.43
507457,4.602777777777778,-0.42
507458,4.605555555555555,-0.405
507459,4.608333333333333,-0.415
507460,4.611111111111111,-0.395
507461,4.613888888888889,-0.385
507462,4.616666666666666,-0.385
507463,4.6194444444444445,-0.395
507464,4.622222222222222,-0.4
507465,4.625,-0.415
507466,4.627777777777778,-0.41
507467,4.6305555555555555,-0.41
507468,4.633333333333334,-0.4
507469,4.636111111111111,-0.4
507470,4.638888888888889,-0.39
507471,4.641666666666667,-0.38
507472,4.644444444444445,-0.37
507473,4.647222222222222,-0.36
507474,4.65,-0.375
507475,4.652777777777778,-0.375
507476,4.655555555555556,-0.39
507477,4.658333333333333,-0.4
507478,4.661111111111111,-0.39
507479,4.663888888888889,-0.39
507480,4.666666666666667,-0.405
507481,4.669444444444444,-0.375
507482,4.6722222222222225,-0.36
507483,4.675,-0.355
507484,4.677777777777778,-0.33
507485,4.680555555555555,-0.35
507486,4.683333333333334,-0.365
507487,4.686111111111111,-0.38
507488,4.688888888888889,-0.405
507489,4.691666666666666,-0.42
507490,4.694444444444445,-0.405
507491,4.697222222222222,-0.4
507492,4.7,-0.41
507493,4.7027777777777775,-0.4
507494,4.705555555555556,-0.385
507495,4.708333333333333,-0.41
507496,4.711111111111111,-0.405
507497,4.713888888888889,-0.395
507498,4.716666666666667,-0.39
507499,4.719444444444444,-0.395
507500,4.722222222222222,-0.395
507501,4.725,-0.41
507502,4.727777777777778,-0.415
507503,4.730555555555555,-0.41
507504,4.733333333333333,-0.425
507505,4.736111111111111,-0.425
507506,4.738888888888889,-0.415
507507,4.741666666666666,-0.41
507508,4.7444444444444445,-0.4
507509,4.747222222222222,-0.415
507510,4.75,-0.4
507511,4.752777777777778,-0.405
507512,4.7555555555555555,-0.41
507513,4.758333333333334,-0.42
507514,4.761111111111111,-0.415
507515,4.763888888888889,-0.425
507516,4.766666666666667,-0.43
507517,4.769444444444445,-0.41
507518,4.772222222222222,-0.42
507519,4.775,-0.39
507520,4.777777777777778,-0.38
507521,4.780555555555556,-0.375
507522,4.783333333333333,-0.365
507523,4.786111111111111,-0.38
507524,4.788888888888889,-0.4
507525,4.791666666666667,-0.42
507526,4.794444444444444,-0.44
507527,4.7972222222222225,-0.43
507528,4.8,-0.43
507529,4.802777777777778,-0.425
507530,4.805555555555555,-0.4
507531,4.808333333333334,-0.395
507532,4.811111111111111,-0.38
507533,4.813888888888889,-0.38
507534,4.816666666666666,-0.39
507535,4.819444444444445,-0.39
507536,4.822222222222222,-0.4
507537,4.825,-0.395
507538,4.8277777777777775,-0.385
507539,4.830555555555556,-0.365
507540,4.833333333333333,-0.33
507541,4.836111111111111,-0.305
507542,4.838888888888889,-0.295
507543,4.841666666666667,-0.3
507544,4.844444444444444,-0.29
507545,4.847222222222222,-0.31
507546,4.85,-0.305
507547,4.852777777777778,-0.31
507548,4.855555555555555,-0.31
507549,4.858333333333333,-0.31
507550,4.861111111111111,-0.28
507551,4.863888888888889,-0.275
507552,4.866666666666666,-0.225
507553,4.8694444444444445,-0.215
507554,4.872222222222222,-0.2
507555,4.875,-0.21
507556,4.877777777777778,-0.215
507557,4.8805555555555555,-0.235
507558,4.883333333333334,-0.265
507559,4.886111111111111,-0.285
507560,4.888888888888889,-0.29
507561,4.891666666666667,-0.28
507562,4.894444444444445,-0.29
507563,4.897222222222222,-0.305
507564,4.9,-0.305
507565,4.902777777777778,-0.295
507566,4.905555555555556,-0.315
507567,4.908333333333333,-0.32
507568,4.911111111111111,-0.335
507569,4.913888888888889,-0.36
507570,4.916666666666667,-0.38
507571,4.919444444444444,-0.41
507572,4.9222222222222225,-0.44
507573,4.925,-0.46
507574,4.927777777777778,-0.465
507575,4.930555555555555,-0.465
507576,4.933333333333334,-0.45
507577,4.936111111111111,-0.445
507578,4.938888888888889,-0.42
507579,4.941666666666666,-0.415
507580,4.944444444444445,-0.405
507581,4.947222222222222,-0.41
507582,4.95,-0.405
507583,4.9527777777777775,-0.425
507584,4.955555555555556,-0.42
507585,4.958333333333333,-0.435
507586,4.961111111111111,-0.425
507587,4.963888888888889,-0.43
507588,4.966666666666667,-0.435
507589,4.969444444444444,-0.405
507590,4.972222222222222,-0.37
507591,4.975,-0.325
507592,4.977777777777778,-0.265
507593,4.980555555555555,-0.17
507594,4.983333333333333,-0.05
507595,4.986111111111111,0.095
507596,4.988888888888889,0.285
507597,4.991666666666666,0.5
507598,4.9944444444444445,0.74
507599,4.997222222222222,1.005
507600,5.0,1.32
507601,5.002777777777778,1.645
507602,5.0055555555555555,1.945
507603,5.008333333333334,2.175
507604,5.011111111111111,2.31
507605,5.013888888888889,2.27
507606,5.016666666666667,1.985
507607,5.019444444444445,1.44
507608,5.022222222222222,0.8
507609,5.025,0.16
507610,5.027777777777778,-0.48
507611,5.030555555555556,-0.955
507612,5.033333333333333,-1.005
507613,5.036111111111111,-0.84
507614,5.038888888888889,-0.57
507615,5.041666666666667,-0.33
507616,5.044444444444444,-0.175
507617,5.0472222222222225,-0.11
507618,5.05,-0.115
507619,5.052777777777778,-0.175
507620,5.055555555555555,-0.235
507621,5.058333333333334,-0.28
507622,5.061111111111111,-0.315
507623,5.063888888888889,-0.32
507624,5.066666666666666,-0.335
507625,5.069444444444445,-0.29
507626,5.072222222222222,-0.27
507627,5.075,-0.265
507628,5.0777777777777775,-0.245
507629,5.080555555555556,-0.26
507630,5.083333333333333,-0.27
507631,5.086111111111111,-0.26
507632,5.088888888888889,-0.255
507633,5.091666666666667,-0.24
507634,5.094444444444444,-0.25
507635,5.097222222222222,-0.245
507636,5.1,-0.235
507637,5.102777777777778,-0.21
507638,5.105555555555555,-0.185
507639,5.108333333333333,-0.17
507640,5.111111111111111,-0.155
507641,5.113888888888889,-0.145
507642,5.116666666666666,-0.155
507643,5.1194444444444445,-0.155
507644,5.122222222222222,-0.17
507645,5.125,-0.17
507646,5.127777777777778,-0.175
507647,5.1305555555555555,-0.17
507648,5.133333333333334,-0.17
507649,5.136111111111111,-0.14
507650,5.138888888888889,-0.115
507651,5.141666666666667,-0.095
507652,5.144444444444445,-0.095
507653,5.147222222222222,-0.07
507654,5.15,-0.065
507655,5.152777777777778,-0.06
507656,5.155555555555556,-0.08
507657,5.158333333333333,-0.08
507658,5.161111111111111,-0.07
507659,5.163888888888889,-0.055
507660,5.166666666666667,-0.055
507661,5.169444444444444,-0.035
507662,5.1722222222222225,-0.01
507663,5.175,-0.005
507664,5.177777777777778,0.015
507665,5.180555555555555,0.04
507666,5.183333333333334,0.035
507667,5.186111111111111,0.04
507668,5.188888888888889,0.05
507669,5.191666666666666,0.05
507670,5.194444444444445,0.055
507671,5.197222222222222,0.075
507672,5.2,0.075
507673,5.2027777777777775,0.105
507674,5.205555555555556,0.12
507675,5.208333333333333,0.135
507676,5.211111111111111,0.14
507677,5.213888888888889,0.145
507678,5.216666666666667,0.155
507679,5.219444444444444,0.155
507680,5.222222222222222,0.17
507681,5.225,0.175
507682,5.227777777777778,0.165
507683,5.230555555555555,0.175
507684,5.233333333333333,0.17
507685,5.236111111111111,0.185
507686,5.238888888888889,0.185
507687,5.241666666666666,0.19
507688,5.2444444444444445,0.195
507689,5.247222222222222,0.2
507690,5.25,0.175
507691,5.252777777777778,0.175
507692,5.2555555555555555,0.155
507693,5.258333333333334,0.135
507694,5.261111111111111,0.145
507695,5.263888888888889,0.145
507696,5.266666666666667,0.12
507697,5.269444444444445,0.14
507698,5.272222222222222,0.135
507699,5.275,0.145
507700,5.277777777777778,0.185
507701,5.280555555555556,0.175
507702,5.283333333333333,0.155
507703,5.286111111111111,0.12
507704,5.288888888888889,0.1
507705,5.291666666666667,0.085
507706,5.294444444444444,0.07
507707,5.2972222222222225,0.05
507708,5.3,0.05
507709,5.302777777777778,0.045
507710,5.305555555555555,0.045
507711,5.308333333333334,0.04
507712,5.311111111111111,0.04
507713,5.313888888888889,0.035
507714,5.316666666666666,0.02
507715,5.319444444444445,0.02
507716,5.322222222222222,0.0
507717,5.325,-0.005
507718,5.3277777777777775,-0.015
507719,5.330555555555556,-0.01
507720,5.333333333333333,-0.02
507721,5.336111111111111,-0.025
507722,5.338888888888889,-0.005
507723,5.341666666666667,-0.005
507724,5.344444444444444,0.01
507725,5.347222222222222,0.025
507726,5.35,0.025
507727,5.352777777777778,0.01
507728,5.355555555555555,-0.005
507729,5.358333333333333,-0.015
507730,5.361111111111111,-0.035
507731,5.363888888888889,-0.025
507732,5.366666666666666,-0.015
507733,5.3694444444444445,0.005
507734,5.372222222222222,0.005
507735,5.375,0.0
507736,5.377777777777778,0.025
507737,5.3805555555555555,0.015
507738,5.383333333333334,0.02
507739,5.386111111111111,0.02
507740,5.388888888888889,-0.005
507741,5.391666666666667,-0.02
507742,5.394444444444445,-0.01
507743,5.397222222222222,-0.005
507744,5.4,0.005
507745,5.402777777777778,0.015
507746,5.405555555555556,0.03
507747,5.408333333333333,0.025
507748,5.411111111111111,0.025
507749,5.413888888888889,0.02
507750,5.416666666666667,0.02
507751,5.419444444444444,0.0
507752,5.4222222222222225,-0.01
507753,5.425,0.0
507754,5.427777777777778,-0.005
507755,5.430555555555555,-0.01
507756,5.433333333333334,-0.01
507757,5.436111111111111,-0.01
507758,5.438888888888889,-0.01
507759,5.441666666666666,-0.005
507760,5.444444444444445,0.01
507761,5.447222222222222,-0.01
507762,5.45,-0.01
507763,5.4527777777777775,0.0
507764,5.455555555555556,-0.025
507765,5.458333333333333,-0.04
507766,5.461111111111111,-0.05
507767,5.463888888888889,-0.045
507768,5.466666666666667,-0.045
507769,5.469444444444444,-0.045
507770,5.472222222222222,-0.035
507771,5.475,-0.02
507772,5.477777777777778,-0.02
507773,5.480555555555555,-0.02
507774,5.483333333333333,-0.02
507775,5.486111111111111,-0.025
507776,5.488888888888889,-0.045
507777,5.491666666666666,-0.045
507778,5.4944444444444445,-0.04
507779,5.497222222222222,-0.06
507780,5.5,-0.055
507781,5.502777777777778,-0.075
507782,5.5055555555555555,-0.065
507783,5.508333333333334,-0.07
507784,5.511111111111111,-0.045
507785,5.513888888888889,-0.04
507786,5.516666666666667,-0.03
507787,5.519444444444445,-0.03
507788,5.522222222222222,-0.045
507789,5.525,-0.045
507790,5.527777777777778,-0.05
507791,5.530555555555556,-0.065
507792,5.533333333333333,-0.065
507793,5.536111111111111,-0.04
507794,5.538888888888889,-0.025
507795,5.541666666666667,-0.025
507796,5.544444444444444,-0.02
507797,5.5472222222222225,-0.02
507798,5.55,-0.025
507799,5.552777777777778,-0.04
507800,5.555555555555555,-0.045
507801,5.558333333333334,-0.045
507802,5.561111111111111,-0.05
507803,5.563888888888889,-0.05
507804,5.566666666666666,-0.035
507805,5.569444444444445,-0.035
507806,5.572222222222222,-0.01
507807,5.575,0.005
507808,5.5777777777777775,0.04
507809,5.580555555555556,0.06
507810,5.583333333333333,0.07
507811,5.586111111111111,0.08
507812,5.588888888888889,0.075
507813,5.591666666666667,0.075
507814,5.594444444444444,0.07
507815,5.597222222222222,0.065
507816,5.6,0.05
507817,5.602777777777778,0.05
507818,5.605555555555555,0.075
507819,5.608333333333333,0.075
507820,5.611111111111111,0.11
507821,5.613888888888889,0.125
507822,5.616666666666666,0.14
507823,5.6194444444444445,0.145
507824,5.622222222222222,0.165
507825,5.625,0.165
507826,5.627777777777778,0.15
507827,5.6305555555555555,0.135
507828,5.633333333333334,0.12
507829,5.636111111111111,0.11
507830,5.638888888888889,0.115
507831,5.641666666666667,0.11
507832,5.644444444444445,0.115
507833,5.647222222222222,0.085
507834,5.65,0.085
507835,5.652777777777778,0.06
507836,5.655555555555556,0.045
507837,5.658333333333333,0.005
507838,5.661111111111111,-0.01
507839,5.663888888888889,-0.025
507840,5.666666666666667,-0.04
507841,5.669444444444444,-0.06
507842,5.6722222222222225,-0.055
507843,5.675,-0.065
507844,5.677777777777778,-0.06
507845,5.680555555555555,-0.07
507846,5.683333333333334,-0.08
507847,5.686111111111111,-0.06
507848,5.688888888888889,-0.075
507849,5.691666666666666,-0.065
507850,5.694444444444445,-0.07
507851,5.697222222222222,-0.075
507852,5.7,-0.075
507853,5.7027777777777775,-0.06
507854,5.705555555555556,-0.055
507855,5.708333333333333,-0.045
507856,5.711111111111111,-0.045
507857,5.713888888888889,-0.05
507858,5.716666666666667,-0.055
507859,5.719444444444444,0.0
507860,5.722222222222222,0.06
507861,5.725,0.155
507862,5.727777777777778,0.32
507863,5.730555555555555,0.535
507864,5.733333333333333,0.795
507865,5.736111111111111,1.095
507866,5.738888888888889,1.43
507867,5.741666666666666,1.795
507868,5.7444444444444445,2.17
507869,5.747222222222222,2.485
507870,5.75,2.715
507871,5.752777777777778,2.785
507872,5.7555555555555555,2.66
507873,5.758333333333334,2.255
507874,5.761111111111111,1.615
507875,5.763888888888889,0.975
507876,5.766666666666667,0.335
507877,5.769444444444445,-0.305
507878,5.772222222222222,-0.78
507879,5.775,-0.755
507880,5.777777777777778,-0.52
507881,5.780555555555556,-0.215
507882,5.783333333333333,0.015
507883,5.786111111111111,0.155
507884,5.788888888888889,0.175
507885,5.791666666666667,0.135
507886,5.794444444444444,0.06
507887,5.7972222222222225,-0.015
507888,5.8,-0.065
507889,5.802777777777778,-0.07
507890,5.805555555555555,-0.045
507891,5.808333333333334,-0.035
507892,5.811111111111111,-0.015
507893,5.813888888888889,0.0
507894,5.816666666666666,-0.01
507895,5.819444444444445,-0.02
507896,5.822222222222222,-0.04
507897,5.825,-0.05
507898,5.8277777777777775,-0.04
507899,5.830555555555556,-0.06
507900,5.833333333333333,-0.035
507901,5.836111111111111,-0.025
507902,5.838888888888889,-0.035
507903,5.841666666666667,0.0
507904,5.844444444444444,0.005
507905,5.847222222222222,0.01
507906,5.85,0.02
507907,5.852777777777778,0.03
507908,5.855555555555555,0.025
507909,5.858333333333333,0.02
507910,5.861111111111111,0.01
507911,5.863888888888889,0.01
507912,5.866666666666666,0.03
507913,5.8694444444444445,0.015
507914,5.872222222222222,0.035
507915,5.875,0.06
507916,5.877777777777778,0.07
507917,5.8805555555555555,0.085
507918,5.883333333333334,0.085
507919,5.886111111111111,0.08
507920,5.888888888888889,0.085
507921,5.891666666666667,0.075
507922,5.894444444444445,0.075
507923,5.897222222222222,0.085
507924,5.9,0.085
507925,5.902777777777778,0.095
507926,5.905555555555556,0.105
507927,5.908333333333333,0.12
507928,5.911111111111111,0.14
507929,5.913888888888889,0.145
507930,5.916666666666667,0.155
507931,5.919444444444444,0.175
507932,5.9222222222222225,0.17
507933,5.925,0.17
507934,5.927777777777778,0.175
507935,5.930555555555555,0.16
507936,5.933333333333334,0.17
507937,5.936111111111111,0.205
507938,5.938888888888889,0.22
507939,5.941666666666666,0.24
507940,5.944444444444445,0.26
507941,5.947222222222222,0.28
507942,5.95,0.28
507943,5.9527777777777775,0.3
507944,5.955555555555556,0.305
507945,5.958333333333333,0.285
507946,5.961111111111111,0.285
507947,5.963888888888889,0.295
507948,5.966666666666667,0.3
507949,5.969444444444444,0.295
507950,5.972222222222222,0.32
507951,5.975,0.33
507952,5.977777777777778,0.345
507953,5.980555555555555,0.34
507954,5.983333333333333,0.33
507955,5.986111111111111,0.315
507956,5.988888888888889,0.3
507957,5.991666666666666,0.29
507958,5.9944444444444445,0.285
507959,5.997222222222222,0.29
507960,6.0,0.285
507961,6.002777777777778,0.3
507962,6.0055555555555555,0.3
507963,6.008333333333334,0.295
507964,6.011111111111111,0.3
507965,6.013888888888889,0.295
507966,6.016666666666667,0.27
507967,6.019444444444445,0.26
507968,6.022222222222222,0.235
507969,6.025,0.205
507970,6.027777777777778,0.2
507971,6.030555555555556,0.18
507972,6.033333333333333,0.17
507973,6.036111111111111,0.165
507974,6.038888888888889,0.16
507975,6.041666666666667,0.165
507976,6.044444444444444,0.17
507977,6.0472222222222225,0.175
507978,6.05,0.145
507979,6.052777777777778,0.125
507980,6.055555555555555,0.12
507981,6.058333333333334,0.095
507982,6.061111111111111,0.09
507983,6.063888888888889,0.07
507984,6.066666666666666,0.055
507985,6.069444444444445,0.08
507986,6.072222222222222,0.095
507987,6.075,0.11
507988,6.0777777777777775,0.09
507989,6.080555555555556,0.095
507990,6.083333333333333,0.085
507991,6.086111111111111,0.075
507992,6.088888888888889,0.085
507993,6.091666666666667,0.085
507994,6.094444444444444,0.085
507995,6.097222222222222,0.095
507996,6.1,0.095
507997,6.102777777777778,0.09
507998,6.105555555555555,0.09
507999,6.108333333333333,0.08
508000,6.111111111111111,0.105
508001,6.113888888888889,0.105
508002,6.116666666666666,0.095
508003,6.1194444444444445,0.095
508004,6.122222222222222,0.085
508005,6.125,0.08
508006,6.127777777777778,0.08
508007,6.1305555555555555,0.06
508008,6.133333333333334,0.05
508009,6.136111111111111,0.08
508010,6.138888888888889,0.08
508011,6.141666666666667,0.095
508012,6.144444444444445,0.11
508013,6.147222222222222,0.1
508014,6.15,0.085
508015,6.152777777777778,0.07
508016,6.155555555555556,0.075
508017,6.158333333333333,0.07
508018,6.161111111111111,0.06
508019,6.163888888888889,0.06
508020,6.166666666666667,0.05
508021,6.169444444444444,0.055
508022,6.1722222222222225,0.05
508023,6.175,0.06
508024,6.177777777777778,0.065
508025,6.180555555555555,0.06
508026,6.183333333333334,0.06
508027,6.186111111111111,0.055
508028,6.188888888888889,0.045
508029,6.191666666666666,0.045
508030,6.194444444444445,0.04
508031,6.197222222222222,0.03
508032,6.2,0.025
508033,6.2027777777777775,0.02
508034,6.205555555555556,0.03
508035,6.208333333333333,0.035
508036,6.211111111111111,0.055
508037,6.213888888888889,0.06
508038,6.216666666666667,0.05
508039,6.219444444444444,0.015
508040,6.222222222222222,0.025
508041,6.225,0.025
508042,6.227777777777778,0.025
508043,6.230555555555555,0.03
508044,6.233333333333333,0.035
508045,6.236111111111111,0.04
508046,6.238888888888889,0.045
508047,6.241666666666666,0.045
508048,6.2444444444444445,0.07
508049,6.247222222222222,0.06
508050,6.25,0.065
508051,6.252777777777778,0.05
508052,6.2555555555555555,0.05
508053,6.258333333333334,0.04
508054,6.261111111111111,0.04
508055,6.263888888888889,0.03
508056,6.266666666666667,0.03
508057,6.269444444444445,0.05
508058,6.272222222222222,0.05
508059,6.275,0.055
508060,6.277777777777778,0.075
508061,6.280555555555556,0.085
508062,6.283333333333333,0.06
508063,6.286111111111111,0.055
508064,6.288888888888889,0.055
508065,6.291666666666667,0.05
508066,6.294444444444444,0.05
508067,6.2972222222222225,0.045
508068,6.3,0.05
508069,6.302777777777778,0.08
508070,6.305555555555555,0.11
508071,6.308333333333334,0.155
508072,6.311111111111111,0.17
508073,6.313888888888889,0.19
508074,6.316666666666666,0.215
508075,6.319444444444445,0.215
508076,6.322222222222222,0.22
508077,6.325,0.2
508078,6.3277777777777775,0.185
508079,6.330555555555556,0.165
508080,6.333333333333333,0.16
508081,6.336111111111111,0.165
508082,6.338888888888889,0.18
508083,6.341666666666667,0.2
508084,6.344444444444444,0.235
508085,6.347222222222222,0.25
508086,6.35,0.245
508087,6.352777777777778,0.26
508088,6.355555555555555,0.24
508089,6.358333333333333,0.22
508090,6.361111111111111,0.21
508091,6.363888888888889,0.195
508092,6.366666666666666,0.2
508093,6.3694444444444445,0.2
508094,6.372222222222222,0.21
508095,6.375,0.205
508096,6.377777777777778,0.195
508097,6.3805555555555555,0.205
508098,6.383333333333334,0.175
508099,6.386111111111111,0.15
508100,6.388888888888889,0.115
508101,6.391666666666667,0.08
508102,6.394444444444445,0.06
508103,6.397222222222222,0.02
508104,6.4,0.005
508105,6.402777777777778,0.015
508106,6.405555555555556,0.03
508107,6.408333333333333,0.015
508108,6.411111111111111,0.02
508109,6.413888888888889,0.03
508110,6.416666666666667,0.025
508111,6.419444444444444,0.035
508112,6.4222222222222225,0.04
508113,6.425,0.045
508114,6.427777777777778,0.04
508115,6.430555555555555,0.035
508116,6.433333333333334,0.04
508117,6.436111111111111,0.05
508118,6.438888888888889,0.05
508119,6.441666666666666,0.035
508120,6.444444444444445,0.045
508121,6.447222222222222,0.04
508122,6.45,0.075
508123,6.4527777777777775,0.125
508124,6.455555555555556,0.19
508125,6.458333333333333,0.33
508126,6.461111111111111,0.545
508127,6.463888888888889,0.81
508128,6.466666666666667,1.105
508129,6.469444444444444,1.435
508130,6.472222222222222,1.785
508131,6.475,2.14
508132,6.477777777777778,2.48
508133,6.480555555555555,2.745
508134,6.483333333333333,2.91
508135,6.486111111111111,2.89
508136,6.488888888888889,2.59
508137,6.491666666666666,1.975
508138,6.4944444444444445,1.335
508139,6.497222222222222,0.695
508140,6.5,0.055
508141,6.502777777777778,-0.585
508142,6.5055555555555555,-0.645
508143,6.508333333333334,-0.365
508144,6.511111111111111,-0.035
508145,6.513888888888889,0.205
508146,6.516666666666667,0.31
508147,6.519444444444445,0.325
508148,6.522222222222222,0.245
508149,6.525,0.165
508150,6.527777777777778,0.1
508151,6.530555555555556,0.035
508152,6.533333333333333,0.03
508153,6.536111111111111,0.045
508154,6.538888888888889,0.06
508155,6.541666666666667,0.075
508156,6.544444444444444,0.1
508157,6.5472222222222225,0.095
508158,6.55,0.085
508159,6.552777777777778,0.09
508160,6.555555555555555,0.08
508161,6.558333333333334,0.075
508162,6.561111111111111,0.075
508163,6.563888888888889,0.07
508164,6.566666666666666,0.06
508165,6.569444444444445,0.085
508166,6.572222222222222,0.105
508167,6.575,0.12
508168,6.5777777777777775,0.135
508169,6.580555555555556,0.135
508170,6.583333333333333,0.13
508171,6.586111111111111,0.125
508172,6.588888888888889,0.125
508173,6.591666666666667,0.115
508174,6.594444444444444,0.13
508175,6.597222222222222,0.1
508176,6.6,0.11
508177,6.602777777777778,0.135
508178,6.605555555555555,0.145
508179,6.608333333333333,0.185
508180,6.611111111111111,0.195
508181,6.613888888888889,0.21
508182,6.616666666666666,0.205
508183,6.6194444444444445,0.195
508184,6.622222222222222,0.19
508185,6.625,0.18
508186,6.627777777777778,0.195
508187,6.6305555555555555,0.2
508188,6.633333333333334,0.205
508189,6.636111111111111,0.23
508190,6.638888888888889,0.245
508191,6.641666666666667,0.27
508192,6.644444444444445,0.275
508193,6.647222222222222,0.29
508194,6.65,0.305
508195,6.652777777777778,0.315
508196,6.655555555555556,0.305
508197,6.658333333333333,0.305
508198,6.661111111111111,0.29
508199,6.663888888888889,0.29
508200,6.666666666666667,0.31
508201,6.669444444444444,0.33
508202,6.6722222222222225,0.35
508203,6.675,0.38
508204,6.677777777777778,0.41
508205,6.680555555555555,0.43
508206,6.683333333333334,0.45
508207,6.686111111111111,0.445
508208,6.688888888888889,0.425
508209,6.691666666666666,0.42
508210,6.694444444444445,0.415
508211,6.697222222222222,0.41
508212,6.7,0.415
508213,6.7027777777777775,0.425
508214,6.705555555555556,0.41
508215,6.708333333333333,0.415
508216,6.711111111111111,0.42
508217,6.713888888888889,0.435
508218,6.716666666666667,0.435
508219,6.719444444444444,0.405
508220,6.722222222222222,0.39
508221,6.725,0.36
508222,6.727777777777778,0.37
508223,6.730555555555555,0.37
508224,6.733333333333333,0.365
508225,6.736111111111111,0.35
508226,6.738888888888889,0.355
508227,6.741666666666666,0.345
508228,6.7444444444444445,0.36
508229,6.747222222222222,0.345
508230,6.75,0.325
508231,6.752777777777778,0.29
508232,6.7555555555555555,0.275
508233,6.758333333333334,0.255
508234,6.761111111111111,0.235
508235,6.763888888888889,0.22
508236,6.766666666666667,0.195
508237,6.769444444444445,0.195
508238,6.772222222222222,0.205
508239,6.775,0.2
508240,6.777777777777778,0.215
508241,6.780555555555556,0.205
508242,6.783333333333333,0.2
508243,6.786111111111111,0.195
508244,6.788888888888889,0.18
508245,6.791666666666667,0.175
508246,6.794444444444444,0.155
508247,6.7972222222222225,0.145
508248,6.8,0.155
508249,6.802777777777778,0.145
508250,6.805555555555555,0.15
508251,6.808333333333334,0.155
508252,6.811111111111111,0.17
508253,6.813888888888889,0.175
508254,6.816666666666666,0.16
508255,6.819444444444445,0.165
508256,6.822222222222222,0.16
508257,6.825,0.17
508258,6.8277777777777775,0.16
508259,6.830555555555556,0.15
508260,6.833333333333333,0.16
508261,6.836111111111111,0.155
508262,6.838888888888889,0.17
508263,6.841666666666667,0.165
508264,6.844444444444444,0.17
508265,6.847222222222222,0.18
508266,6.85,0.17
508267,6.852777777777778,0.165
508268,6.855555555555555,0.14
508269,6.858333333333333,0.135
508270,6.861111111111111,0.14
508271,6.863888888888889,0.14
508272,6.866666666666666,0.125
508273,6.8694444444444445,0.13
508274,6.872222222222222,0.14
508275,6.875,0.135
508276,6.877777777777778,0.15
508277,6.8805555555555555,0.155
508278,6.883333333333334,0.145
508279,6.886111111111111,0.14
508280,6.888888888888889,0.125
508281,6.891666666666667,0.11
508282,6.894444444444445,0.11
508283,6.897222222222222,0.095
508284,6.9,0.085
508285,6.902777777777778,0.09
508286,6.905555555555556,0.09
508287,6.908333333333333,0.105
508288,6.911111111111111,0.115
508289,6.913888888888889,0.125
508290,6.916666666666667,0.12
508291,6.919444444444444,0.115
508292,6.9222222222222225,0.105
508293,6.925,0.095
508294,6.927777777777778,0.09
508295,6.930555555555555,0.06
508296,6.933333333333334,0.06
508297,6.936111111111111,0.075
508298,6.938888888888889,0.085
508299,6.941666666666666,0.09
508300,6.944444444444445,0.1
508301,6.947222222222222,0.11
508302,6.95,0.09
508303,6.9527777777777775,0.1
508304,6.955555555555556,0.095
508305,6.958333333333333,0.09
508306,6.961111111111111,0.08
508307,6.963888888888889,0.08
508308,6.966666666666667,0.065
508309,6.969444444444444,0.065
508310,6.972222222222222,0.075
508311,6.975,0.085
508312,6.977777777777778,0.095
508313,6.980555555555555,0.095
508314,6.983333333333333,0.09
508315,6.986111111111111,0.085
508316,6.988888888888889,0.075
508317,6.991666666666666,0.065
508318,6.9944444444444445,0.05
508319,6.997222222222222,0.065
508320,7.0,0.06
508321,7.002777777777778,0.065
508322,7.0055555555555555,0.07
508323,7.008333333333334,0.1
508324,7.011111111111111,0.12
508325,7.013888888888889,0.12
508326,7.016666666666667,0.11
508327,7.019444444444445,0.12
508328,7.022222222222222,0.105
508329,7.025,0.105
508330,7.027777777777778,0.125
508331,7.030555555555556,0.14
508332,7.033333333333333,0.15
508333,7.036111111111111,0.17
508334,7.038888888888889,0.185
508335,7.041666666666667,0.185
508336,7.044444444444444,0.21
508337,7.0472222222222225,0.19
508338,7.05,0.195
508339,7.052777777777778,0.185
508340,7.055555555555555,0.19
508341,7.058333333333334,0.195
508342,7.061111111111111,0.19
508343,7.063888888888889,0.205
508344,7.066666666666666,0.22
508345,7.069444444444445,0.245
508346,7.072222222222222,0.26
508347,7.075,0.26
508348,7.0777777777777775,0.27
508349,7.080555555555556,0.25
508350,7.083333333333333,0.25
508351,7.086111111111111,0.225
508352,7.088888888888889,0.2
508353,7.091666666666667,0.18
508354,7.094444444444444,0.165
508355,7.097222222222222,0.16
508356,7.1,0.145
508357,7.102777777777778,0.155
508358,7.105555555555555,0.14
508359,7.108333333333333,0.135
508360,7.111111111111111,0.115
508361,7.113888888888889,0.085
508362,7.116666666666666,0.05
508363,7.1194444444444445,0.02
508364,7.122222222222222,0.015
508365,7.125,-0.01
508366,7.127777777777778,-0.02
508367,7.1305555555555555,-0.055
508368,7.133333333333334,-0.04
508369,7.136111111111111,-0.045
508370,7.138888888888889,-0.015
508371,7.141666666666667,0.005
508372,7.144444444444445,0.02
508373,7.147222222222222,0.025
508374,7.15,0.01
508375,7.152777777777778,0.02
508376,7.155555555555556,0.005
508377,7.158333333333333,-0.02
508378,7.161111111111111,-0.03
508379,7.163888888888889,-0.025
508380,7.166666666666667,-0.03
508381,7.169444444444444,-0.04
508382,7.1722222222222225,-0.025
508383,7.175,-0.005
508384,7.177777777777778,0.045
508385,7.180555555555555,0.1
508386,7.183333333333334,0.205
508387,7.186111111111111,0.335
508388,7.188888888888889,0.5
508389,7.191666666666666,0.725
508390,7.194444444444445,0.96
508391,7.197222222222222,1.24
508392,7.2,1.56
508393,7.2027777777777775,1.92
508394,7.205555555555556,2.28
508395,7.208333333333333,2.605
508396,7.211111111111111,2.865
508397,7.213888888888889,2.955
508398,7.216666666666667,2.785
508399,7.219444444444444,2.31
508400,7.222222222222222,1.67
508401,7.225,1.03
508402,7.227777777777778,0.39
508403,7.230555555555555,-0.25
508404,7.233333333333333,-0.765
508405,7.236111111111111,-0.7
508406,7.238888888888889,-0.47
508407,7.241666666666666,-0.205
508408,7.2444444444444445,0.025
508409,7.247222222222222,0.15
508410,7.25,0.185
508411,7.252777777777778,0.135
508412,7.2555555555555555,0.08
508413,7.258333333333334,0.02
508414,7.261111111111111,-0.02
508415,7.263888888888889,-0.055
508416,7.266666666666667,-0.055
508417,7.269444444444445,-0.045
508418,7.272222222222222,-0.035
508419,7.275,-0.035
508420,7.277777777777778,-0.02
508421,7.280555555555556,-0.015
508422,7.283333333333333,-0.025
508423,7.286111111111111,-0.03
508424,7.288888888888889,-0.05
508425,7.291666666666667,-0.04
508426,7.294444444444444,-0.03
508427,7.2972222222222225,-0.04
508428,7.3,-0.02
508429,7.302777777777778,-0.005
508430,7.305555555555555,0.01
508431,7.308333333333334,0.005
508432,7.311111111111111,0.015
508433,7.313888888888889,-0.005
508434,7.316666666666666,-0.01
508435,7.319444444444445,-0.005
508436,7.322222222222222,-0.015
508437,7.325,0.0
508438,7.3277777777777775,-0.01
508439,7.330555555555556,-0.005
508440,7.333333333333333,-0.005
508441,7.336111111111111,0.01
508442,7.338888888888889,0.025
508443,7.341666666666667,0.04
508444,7.344444444444444,0.055
508445,7.347222222222222,0.05
508446,7.35,0.075
508447,7.352777777777778,0.075
508448,7.355555555555555,0.07
508449,7.358333333333333,0.075
508450,7.361111111111111,0.065
508451,7.363888888888889,0.07
508452,7.366666666666666,0.07
508453,7.3694444444444445,0.08
508454,7.372222222222222,0.09
508455,7.375,0.1
508456,7.377777777777778,0.125
508457,7.3805555555555555,0.13
508458,7.383333333333334,0.15
508459,7.386111111111111,0.14
508460,7.388888888888889,0.14
508461,7.391666666666667,0.16
508462,7.394444444444445,0.16
508463,7.397222222222222,0.16
508464,7.4,0.165
508465,7.402777777777778,0.18
508466,7.405555555555556,0.195
508467,7.408333333333333,0.22
508468,7.411111111111111,0.245
508469,7.413888888888889,0.275
508470,7.416666666666667,0.265
508471,7.419444444444444,0.28
508472,7.4222222222222225,0.28
508473,7.425,0.27
508474,7.427777777777778,0.265
508475,7.430555555555555,0.27
508476,7.433333333333334,0.25
508477,7.436111111111111,0.28
508478,7.438888888888889,0.295
508479,7.441666666666666,0.3
508480,7.444444444444445,0.31
508481,7.447222222222222,0.325
508482,7.45,0.31
508483,7.4527777777777775,0.29
508484,7.455555555555556,0.285
508485,7.458333333333333,0.28
508486,7.461111111111111,0.27
508487,7.463888888888889,0.25
508488,7.466666666666667,0.245
508489,7.469444444444444,0.25
508490,7.472222222222222,0.25
508491,7.475,0.27
508492,7.477777777777778,0.27
508493,7.480555555555555,0.26
508494,7.483333333333333,0.24
508495,7.486111111111111,0.215
508496,7.488888888888889,0.2
508497,7.491666666666666,0.17
508498,7.4944444444444445,0.15
508499,7.497222222222222,0.13
508500,7.5,0.115
508501,7.502777777777778,0.095
508502,7.5055555555555555,0.09
508503,7.508333333333334,0.085
508504,7.511111111111111,0.08
508505,7.513888888888889,0.08
508506,7.516666666666667,0.07
508507,7.519444444444445,0.055
508508,7.522222222222222,0.045
508509,7.525,0.035
508510,7.527777777777778,0.015
508511,7.530555555555556,0.015
508512,7.533333333333333,-0.01
508513,7.536111111111111,0.005
508514,7.538888888888889,0.01
508515,7.541666666666667,0.025
508516,7.544444444444444,0.03
508517,7.5472222222222225,0.015
508518,7.55,0.005
508519,7.552777777777778,0.02
508520,7.555555555555555,0.01
508521,7.558333333333334,0.015
508522,7.561111111111111,0.005
508523,7.563888888888889,-0.01
508524,7.566666666666666,-0.01
508525,7.569444444444445,-0.01
508526,7.572222222222222,0.015
508527,7.575,0.03
508528,7.5777777777777775,0.03
508529,7.580555555555556,0.025
508530,7.583333333333333,0.025
508531,7.586111111111111,0.02
508532,7.588888888888889,0.01
508533,7.591666666666667,0.015
508534,7.594444444444444,0.005
508535,7.597222222222222,0.005
508536,7.6,0.005
508537,7.602777777777778,0.0
508538,7.605555555555555,0.0
508539,7.608333333333333,0.015
508540,7.611111111111111,0.015
508541,7.613888888888889,0.005
508542,7.616666666666666,0.005
508543,7.6194444444444445,-0.005
508544,7.622222222222222,-0.015
508545,7.625,-0.015
508546,7.627777777777778,-0.03
508547,7.6305555555555555,-0.055
508548,7.633333333333334,-0.05
508549,7.636111111111111,-0.055
508550,7.638888888888889,-0.05
508551,7.641666666666667,-0.035
508552,7.644444444444445,-0.03
508553,7.647222222222222,-0.03
508554,7.65,-0.035
508555,7.652777777777778,-0.04
508556,7.655555555555556,-0.045
508557,7.658333333333333,-0.07
508558,7.661111111111111,-0.075
508559,7.663888888888889,-0.065
508560,7.666666666666667,-0.075
508561,7.669444444444444,-0.06
508562,7.6722222222222225,-0.055
508563,7.675,-0.045
508564,7.677777777777778,-0.045
508565,7.680555555555555,-0.035
508566,7.683333333333334,-0.05
508567,7.686111111111111,-0.055
508568,7.688888888888889,-0.075
508569,7.691666666666666,-0.08
508570,7.694444444444445,-0.095
508571,7.697222222222222,-0.085
508572,7.7,-0.09
508573,7.7027777777777775,-0.08
508574,7.705555555555556,-0.075
508575,7.708333333333333,-0.08
508576,7.711111111111111,-0.07
508577,7.713888888888889,-0.06
508578,7.716666666666667,-0.065
508579,7.719444444444444,-0.07
508580,7.722222222222222,-0.085
508581,7.725,-0.085
508582,7.727777777777778,-0.105
508583,7.730555555555555,-0.105
508584,7.733333333333333,-0.105
508585,7.736111111111111,-0.095
508586,7.738888888888889,-0.095
508587,7.741666666666666,-0.095
508588,7.7444444444444445,-0.09
508589,7.747222222222222,-0.085
508590,7.75,-0.08
508591,7.752777777777778,-0.09
508592,7.7555555555555555,-0.08
508593,7.758333333333334,-0.07
508594,7.761111111111111,-0.07
508595,7.763888888888889,-0.055
508596,7.766666666666667,-0.045
508597,7.769444444444445,-0.03
508598,7.772222222222222,-0.03
508599,7.775,-0.015
508600,7.777777777777778,-0.005
508601,7.780555555555556,0.01
508602,7.783333333333333,0.005
508603,7.786111111111111,0.015
508604,7.788888888888889,-0.005
508605,7.791666666666667,-0.005
508606,7.794444444444444,0.0
508607,7.7972222222222225,0.005
508608,7.8,0.01
508609,7.802777777777778,0.045
508610,7.805555555555555,0.07
508611,7.808333333333334,0.09
508612,7.811111111111111,0.11
508613,7.813888888888889,0.095
508614,7.816666666666666,0.075
508615,7.819444444444445,0.04
508616,7.822222222222222,0.015
508617,7.825,0.0
508618,7.8277777777777775,-0.015
508619,7.830555555555556,-0.015
508620,7.833333333333333,-0.01
508621,7.836111111111111,-0.005
508622,7.838888888888889,0.005
508623,7.841666666666667,0.0
508624,7.844444444444444,0.0
508625,7.847222222222222,-0.02
508626,7.85,-0.04
508627,7.852777777777778,-0.075
508628,7.855555555555555,-0.115
508629,7.858333333333333,-0.16
508630,7.861111111111111,-0.17
508631,7.863888888888889,-0.175
508632,7.866666666666666,-0.18
508633,7.8694444444444445,-0.15
508634,7.872222222222222,-0.14
508635,7.875,-0.145
508636,7.877777777777778,-0.13
508637,7.8805555555555555,-0.125
508638,7.883333333333334,-0.135
508639,7.886111111111111,-0.13
508640,7.888888888888889,-0.15
508641,7.891666666666667,-0.14
508642,7.894444444444445,-0.14
508643,7.897222222222222,-0.145
508644,7.9,-0.155
508645,7.902777777777778,-0.145
508646,7.905555555555556,-0.13
508647,7.908333333333333,-0.11
508648,7.911111111111111,-0.095
508649,7.913888888888889,-0.055
508650,7.916666666666667,0.005
508651,7.919444444444444,0.08
508652,7.9222222222222225,0.225
508653,7.925,0.425
508654,7.927777777777778,0.655
508655,7.930555555555555,0.95
508656,7.933333333333334,1.265
508657,7.936111111111111,1.64
508658,7.938888888888889,2.045
508659,7.941666666666666,2.425
508660,7.944444444444445,2.765
508661,7.947222222222222,2.96
508662,7.95,2.95
508663,7.9527777777777775,2.65
508664,7.955555555555556,2.02
508665,7.958333333333333,1.38
508666,7.961111111111111,0.74
508667,7.963888888888889,0.1
508668,7.966666666666667,-0.54
508669,7.969444444444444,-0.875
508670,7.972222222222222,-0.695
508671,7.975,-0.42
508672,7.977777777777778,-0.165
508673,7.980555555555555,0.01
508674,7.983333333333333,0.07
508675,7.986111111111111,0.055
508676,7.988888888888889,-0.01
508677,7.991666666666666,-0.08
508678,7.9944444444444445,-0.125
508679,7.997222222222222,-0.165
508680,8.0,-0.19
508681,8.002777777777778,-0.18
508682,8.005555555555556,-0.15
508683,8.008333333333333,-0.14
508684,8.011111111111111,-0.125
508685,8.01388888888889,-0.115
508686,8.016666666666667,-0.125
508687,8.019444444444444,-0.12
508688,8.022222222222222,-0.13
508689,8.025,-0.12
508690,8.027777777777779,-0.125
508691,8.030555555555555,-0.12
508692,8.033333333333333,-0.12
508693,8.036111111111111,-0.12
508694,8.03888888888889,-0.1
508695,8.041666666666666,-0.1
508696,8.044444444444444,-0.09
508697,8.047222222222222,-0.06
508698,8.05,-0.065
508699,8.052777777777777,-0.065
508700,8.055555555555555,-0.065
508701,8.058333333333334,-0.07
508702,8.061111111111112,-0.075
508703,8.063888888888888,-0.08
508704,8.066666666666666,-0.055
508705,8.069444444444445,-0.045
508706,8.072222222222223,-0.035
508707,8.075,-0.02
508708,8.077777777777778,-0.01
508709,8.080555555555556,0.02
508710,8.083333333333334,0.01
508711,8.08611111111111,0.02
508712,8.088888888888889,0.005
508713,8.091666666666667,0.02
508714,8.094444444444445,0.015
508715,8.097222222222221,0.02
508716,8.1,0.035
508717,8.102777777777778,0.05
508718,8.105555555555556,0.085
508719,8.108333333333333,0.09
508720,8.11111111111111,0.11
508721,8.113888888888889,0.135
508722,8.116666666666667,0.15
508723,8.119444444444444,0.18
508724,8.122222222222222,0.185
508725,8.125,0.215
508726,8.127777777777778,0.23
508727,8.130555555555556,0.235
508728,8.133333333333333,0.26
508729,8.136111111111111,0.275
508730,8.13888888888889,0.285
508731,8.141666666666667,0.3
508732,8.144444444444444,0.325
508733,8.147222222222222,0.325
508734,8.15,0.35
508735,8.152777777777779,0.34
508736,8.155555555555555,0.34
508737,8.158333333333333,0.345
508738,8.161111111111111,0.335
508739,8.16388888888889,0.33
508740,8.166666666666666,0.33
508741,8.169444444444444,0.335
508742,8.172222222222222,0.34
508743,8.175,0.36
508744,8.177777777777777,0.37
508745,8.180555555555555,0.365
508746,8.183333333333334,0.36
508747,8.186111111111112,0.355
508748,8.188888888888888,0.335
508749,8.191666666666666,0.325
508750,8.194444444444445,0.315
508751,8.197222222222223,0.31
508752,8.2,0.3
508753,8.202777777777778,0.29
508754,8.205555555555556,0.28
508755,8.208333333333334,0.285
508756,8.21111111111111,0.275
508757,8.213888888888889,0.265
508758,8.216666666666667,0.245
508759,8.219444444444445,0.215
508760,8.222222222222221,0.18
508761,8.225,0.175
508762,8.227777777777778,0.15
508763,8.230555555555556,0.125
508764,8.233333333333333,0.13
508765,8.23611111111111,0.12
508766,8.238888888888889,0.105
508767,8.241666666666667,0.1
508768,8.244444444444444,0.105
508769,8.247222222222222,0.12
508770,8.25,0.11
508771,8.252777777777778,0.1
508772,8.255555555555556,0.095
508773,8.258333333333333,0.08
508774,8.261111111111111,0.075
508775,8.26388888888889,0.075
508776,8.266666666666667,0.075
508777,8.269444444444444,0.08
508778,8.272222222222222,0.08
508779,8.275,0.08
508780,8.277777777777779,0.085
508781,8.280555555555555,0.115
508782,8.283333333333333,0.1
508783,8.286111111111111,0.085
508784,8.28888888888889,0.07
508785,8.291666666666666,0.075
508786,8.294444444444444,0.095
508787,8.297222222222222,0.1
508788,8.3,0.1
508789,8.302777777777777,0.11
508790,8.305555555555555,0.11
508791,8.308333333333334,0.12
508792,8.311111111111112,0.13
508793,8.313888888888888,0.145
508794,8.316666666666666,0.155
508795,8.319444444444445,0.15
508796,8.322222222222223,0.135
508797,8.325,0.125
508798,8.327777777777778,0.105
508799,8.330555555555556,0.105
508800,8.333333333333334,0.105
508801,8.33611111111111,0.105
508802,8.338888888888889,0.115
508803,8.341666666666667,0.115
508804,8.344444444444445,0.135
508805,8.347222222222221,0.135
508806,8.35,0.135
508807,8.352777777777778,0.135
508808,8.355555555555556,0.11
508809,8.358333333333333,0.11
508810,8.36111111111111,0.09
508811,8.363888888888889,0.08
508812,8.366666666666667,0.08
508813,8.369444444444444,0.08
508814,8.372222222222222,0.085
508815,8.375,0.085
508816,8.377777777777778,0.09
508817,8.380555555555556,0.095
508818,8.383333333333333,0.095
508819,8.386111111111111,0.09
508820,8.38888888888889,0.09
508821,8.391666666666667,0.08
508822,8.394444444444444,0.07
508823,8.397222222222222,0.055
508824,8.4,0.055
508825,8.402777777777779,0.055
508826,8.405555555555555,0.04
508827,8.408333333333333,0.055
508828,8.411111111111111,0.04
508829,8.41388888888889,0.05
508830,8.416666666666666,0.05
508831,8.419444444444444,0.055
508832,8.422222222222222,0.05
508833,8.425,0.05
508834,8.427777777777777,0.035
508835,8.430555555555555,0.04
508836,8.433333333333334,0.045
508837,8.436111111111112,0.065
508838,8.438888888888888,0.065
508839,8.441666666666666,0.06
508840,8.444444444444445,0.06
508841,8.447222222222223,0.07
508842,8.45,0.05
508843,8.452777777777778,0.055
508844,8.455555555555556,0.05
508845,8.458333333333334,0.035
508846,8.46111111111111,0.03
508847,8.463888888888889,0.015
508848,8.466666666666667,0.025
508849,8.469444444444445,0.035
508850,8.472222222222221,0.045
508851,8.475,0.055
508852,8.477777777777778,0.065
508853,8.480555555555556,0.07
508854,8.483333333333333,0.065
508855,8.48611111111111,0.065
508856,8.488888888888889,0.06
508857,8.491666666666667,0.055
508858,8.494444444444444,0.065
508859,8.497222222222222,0.065
508860,8.5,0.08
508861,8.502777777777778,0.085
508862,8.505555555555556,0.115
508863,8.508333333333333,0.135
508864,8.511111111111111,0.14
508865,8.51388888888889,0.16
508866,8.516666666666667,0.135
508867,8.519444444444444,0.12
508868,8.522222222222222,0.135
508869,8.525,0.125
508870,8.527777777777779,0.12
508871,8.530555555555555,0.115
508872,8.533333333333333,0.135
508873,8.536111111111111,0.15
508874,8.53888888888889,0.185
508875,8.541666666666666,0.2
508876,8.544444444444444,0.2
508877,8.547222222222222,0.21
508878,8.55,0.17
508879,8.552777777777777,0.16
508880,8.555555555555555,0.14
508881,8.558333333333334,0.125
508882,8.561111111111112,0.11
508883,8.563888888888888,0.1
508884,8.566666666666666,0.075
508885,8.569444444444445,0.085
508886,8.572222222222223,0.095
508887,8.575,0.095
508888,8.577777777777778,0.085
508889,8.580555555555556,0.05
508890,8.583333333333334,0.035
508891,8.58611111111111,-0.005
508892,8.588888888888889,-0.03
508893,8.591666666666667,-0.055
508894,8.594444444444445,-0.07
508895,8.597222222222221,-0.08
508896,8.6,-0.08
508897,8.602777777777778,-0.08
508898,8.605555555555556,-0.07
508899,8.608333333333333,-0.065
508900,8.61111111111111,-0.025
508901,8.613888888888889,-0.02
508902,8.616666666666667,-0.025
508903,8.619444444444444,-0.04
508904,8.622222222222222,-0.03
508905,8.625,-0.045
508906,8.627777777777778,-0.06
508907,8.630555555555556,-0.065
508908,8.633333333333333,-0.055
508909,8.636111111111111,-0.05
508910,8.63888888888889,-0.025
508911,8.641666666666667,0.03
508912,8.644444444444444,0.1
508913,8.647222222222222,0.225
508914,8.65,0.4
508915,8.652777777777779,0.62
508916,8.655555555555555,0.9
508917,8.658333333333333,1.215
508918,8.661111111111111,1.58
508919,8.66388888888889,1.97
508920,8.666666666666666,2.385
508921,8.669444444444444,2.725
508922,8.672222222222222,2.885
508923,8.675,2.78
508924,8.677777777777777,2.355
508925,8.680555555555555,1.715
508926,8.683333333333334,1.075
508927,8.686111111111112,0.435
508928,8.688888888888888,-0.205
508929,8.691666666666666,-0.78
508930,8.694444444444445,-0.655
508931,8.697222222222223,-0.395
508932,8.7,-0.105
508933,8.702777777777778,0.085
508934,8.705555555555556,0.175
508935,8.708333333333334,0.18
508936,8.71111111111111,0.1
508937,8.713888888888889,0.045
508938,8.716666666666667,-0.025
508939,8.719444444444445,-0.065
508940,8.722222222222221,-0.08
508941,8.725,-0.075
508942,8.727777777777778,-0.065
508943,8.730555555555556,-0.055
508944,8.733333333333333,-0.07
508945,8.73611111111111,-0.05
508946,8.738888888888889,-0.04
508947,8.741666666666667,-0.035
508948,8.744444444444444,-0.045
508949,8.747222222222222,-0.035
508950,8.75,-0.04
508951,8.752777777777778,-0.03
508952,8.755555555555556,-0.04
508953,8.758333333333333,-0.04
508954,8.761111111111111,-0.03
508955,8.76388888888889,-0.03
508956,8.766666666666667,-0.025
508957,8.769444444444444,-0.025
508958,8.772222222222222,-0.01
508959,8.775,0.0
508960,8.777777777777779,0.02
508961,8.780555555555555,0.03
508962,8.783333333333333,0.035
508963,8.786111111111111,0.04
508964,8.78888888888889,0.02
508965,8.791666666666666,0.01
508966,8.794444444444444,0.005
508967,8.797222222222222,0.01
508968,8.8,0.03
508969,8.802777777777777,0.045
508970,8.805555555555555,0.07
508971,8.808333333333334,0.075
508972,8.811111111111112,0.085
508973,8.813888888888888,0.105
508974,8.816666666666666,0.095
508975,8.819444444444445,0.12
508976,8.822222222222223,0.115
508977,8.825,0.135
508978,8.827777777777778,0.13
508979,8.830555555555556,0.15
508980,8.833333333333334,0.145
508981,8.83611111111111,0.17
508982,8.838888888888889,0.185
508983,8.841666666666667,0.2
508984,8.844444444444445,0.23
508985,8.847222222222221,0.245
508986,8.85,0.255
508987,8.852777777777778,0.265
508988,8.855555555555556,0.275
508989,8.858333333333333,0.295
508990,8.86111111111111,0.295
508991,8.863888888888889,0.3
508992,8.866666666666667,0.295
508993,8.869444444444444,0.295
508994,8.872222222222222,0.32
508995,8.875,0.325
508996,8.877777777777778,0.33
508997,8.880555555555556,0.35
508998,8.883333333333333,0.355
508999,8.886111111111111,0.355
509000,8.88888888888889,0.35
509001,8.891666666666667,0.335
509002,8.894444444444444,0.32
509003,8.897222222222222,0.315
509004,8.9,0.305
509005,8.902777777777779,0.31
509006,8.905555555555555,0.31
509007,8.908333333333333,0.31
509008,8.911111111111111,0.31
509009,8.91388888888889,0.3
509010,8.916666666666666,0.285
509011,8.919444444444444,0.26
509012,8.922222222222222,0.25
509013,8.925,0.225
509014,8.927777777777777,0.195
509015,8.930555555555555,0.195
509016,8.933333333333334,0.17
509017,8.936111111111112,0.145
509018,8.938888888888888,0.14
509019,8.941666666666666,0.135
509020,8.944444444444445,0.13
509021,8.947222222222223,0.12
509022,8.95,0.11
509023,8.952777777777778,0.08
509024,8.955555555555556,0.075
509025,8.958333333333334,0.05
509026,8.96111111111111,0.05
509027,8.963888888888889,0.025
509028,8.966666666666667,0.015
509029,8.969444444444445,0.0
509030,8.972222222222221,0.015
509031,8.975,0.02
509032,8.977777777777778,0.015
509033,8.980555555555556,0.02
509034,8.983333333333333,0.01
509035,8.98611111111111,0.015
509036,8.988888888888889,0.01
509037,8.991666666666667,0.005
509038,8.994444444444444,-0.005
509039,8.997222222222222,0.0
509040,9.0,-0.015
509041,9.002777777777778,-0.005
509042,9.005555555555556,-0.005
509043,9.008333333333333,-0.005
509044,9.011111111111111,-0.005
509045,9.01388888888889,0.0
509046,9.016666666666667,0.01
509047,9.019444444444444,0.005
509048,9.022222222222222,0.01
509049,9.025,0.01
509050,9.027777777777779,0.0
509051,9.030555555555555,0.0
509052,9.033333333333333,-0.02
509053,9.036111111111111,-0.025
509054,9.03888888888889,0.0
509055,9.041666666666666,0.01
509056,9.044444444444444,0.015
509057,9.047222222222222,0.015
509058,9.05,0.03
509059,9.052777777777777,0.0
509060,9.055555555555555,0.005
509061,9.058333333333334,0.0
509062,9.061111111111112,-0.015
509063,9.063888888888888,-0.015
509064,9.066666666666666,-0.03
509065,9.069444444444445,-0.025
509066,9.072222222222223,-0.01
509067,9.075,0.0
509068,9.077777777777778,0.01
509069,9.080555555555556,0.025
509070,9.083333333333334,0.02
509071,9.08611111111111,0.01
509072,9.088888888888889,0.0
509073,9.091666666666667,-0.015
509074,9.094444444444445,-0.025
509075,9.097222222222221,-0.025
509076,9.1,-0.025
509077,9.102777777777778,-0.03
509078,9.105555555555556,-0.055
509079,9.108333333333333,-0.03
509080,9.11111111111111,-0.025
509081,9.113888888888889,-0.02
509082,9.116666666666667,-0.02
509083,9.119444444444444,-0.015
509084,9.122222222222222,-0.02
509085,9.125,-0.02
509086,9.127777777777778,-0.03
509087,9.130555555555556,-0.02
509088,9.133333333333333,-0.04
509089,9.136111111111111,-0.025
509090,9.13888888888889,-0.025
509091,9.141666666666667,-0.035
509092,9.144444444444444,-0.04
509093,9.147222222222222,-0.03
509094,9.15,-0.015
509095,9.152777777777779,-0.015
509096,9.155555555555555,-0.03
509097,9.158333333333333,-0.045
509098,9.161111111111111,-0.055
509099,9.16388888888889,-0.06
509100,9.166666666666666,-0.06
509101,9.169444444444444,-0.065
509102,9.172222222222222,-0.06
509103,9.175,-0.045
509104,9.177777777777777,-0.035
509105,9.180555555555555,-0.02
509106,9.183333333333334,-0.02
509107,9.186111111111112,-0.02
509108,9.188888888888888,-0.02
509109,9.191666666666666,-0.025
509110,9.194444444444445,-0.045
509111,9.197222222222223,-0.065
509112,9.2,-0.06
509113,9.202777777777778,-0.05
509114,9.205555555555556,-0.04
509115,9.208333333333334,-0.03
509116,9.21111111111111,-0.01
509117,9.213888888888889,0.015
509118,9.216666666666667,0.04
509119,9.219444444444445,0.05
509120,9.222222222222221,0.04
509121,9.225,0.045
509122,9.227777777777778,0.055
509123,9.230555555555556,0.035
509124,9.233333333333333,0.03
509125,9.23611111111111,0.05
509126,9.238888888888889,0.045
509127,9.241666666666667,0.07
509128,9.244444444444444,0.095
509129,9.247222222222222,0.11
509130,9.25,0.13
509131,9.252777777777778,0.145
509132,9.255555555555556,0.155
509133,9.258333333333333,0.165
509134,9.261111111111111,0.155
509135,9.26388888888889,0.155
509136,9.266666666666667,0.125
509137,9.269444444444444,0.12
509138,9.272222222222222,0.115
509139,9.275,0.12
509140,9.277777777777779,0.13
509141,9.280555555555555,0.125
509142,9.283333333333333,0.13
509143,9.286111111111111,0.125
509144,9.28888888888889,0.11
509145,9.291666666666666,0.075
509146,9.294444444444444,0.055
509147,9.297222222222222,0.04
509148,9.3,0.015
509149,9.302777777777777,-0.005
509150,9.305555555555555,-0.01
509151,9.308333333333334,-0.03
509152,9.311111111111112,-0.035
509153,9.313888888888888,-0.025
509154,9.316666666666666,-0.025
509155,9.319444444444445,-0.03
509156,9.322222222222223,-0.035
509157,9.325,-0.035
509158,9.327777777777778,-0.06
509159,9.330555555555556,-0.05
509160,9.333333333333334,-0.06
509161,9.33611111111111,-0.06
509162,9.338888888888889,-0.04
509163,9.341666666666667,-0.03
509164,9.344444444444445,-0.015
509165,9.347222222222221,-0.02
509166,9.35,0.0
509167,9.352777777777778,-0.015
509168,9.355555555555556,-0.01
509169,9.358333333333333,-0.015
509170,9.36111111111111,-0.01
509171,9.363888888888889,0.01
509172,9.366666666666667,0.055
509173,9.369444444444444,0.145
509174,9.372222222222222,0.275
509175,9.375,0.445
509176,9.377777777777778,0.675
509177,9.380555555555556,0.93
509178,9.383333333333333,1.21
509179,9.386111111111111,1.515
509180,9.38888888888889,1.855
509181,9.391666666666667,2.205
509182,9.394444444444444,2.54
509183,9.397222222222222,2.785
509184,9.4,2.88
509185,9.402777777777779,2.74
509186,9.405555555555555,2.295
509187,9.408333333333333,1.655
509188,9.411111111111111,1.015
509189,9.41388888888889,0.375
509190,9.416666666666666,-0.265
509191,9.419444444444444,-0.735
509192,9.422222222222222,-0.615
509193,9.425,-0.35
509194,9.427777777777777,-0.08
509195,9.430555555555555,0.12
509196,9.433333333333334,0.2
509197,9.436111111111112,0.21
509198,9.438888888888888,0.16
509199,9.441666666666666,0.095
509200,9.444444444444445,0.05
509201,9.447222222222223,0.015
509202,9.45,-0.005
509203,9.452777777777778,0.015
509204,9.455555555555556,0.01
509205,9.458333333333334,-0.015
509206,9.46111111111111,0.0
509207,9.463888888888889,0.005
509208,9.466666666666667,-0.005
509209,9.469444444444445,-0.005
509210,9.472222222222221,0.005
509211,9.475,0.015
509212,9.477777777777778,0.02
509213,9.480555555555556,0.045
509214,9.483333333333333,0.035
509215,9.48611111111111,0.04
509216,9.488888888888889,0.05
509217,9.491666666666667,0.055
509218,9.494444444444444,0.045
509219,9.497222222222222,0.055
509220,9.5,0.03
509221,9.502777777777778,0.045
509222,9.505555555555556,0.055
509223,9.508333333333333,0.075
509224,9.511111111111111,0.09
509225,9.51388888888889,0.095
509226,9.516666666666667,0.11
509227,9.519444444444444,0.095
509228,9.522222222222222,0.115
509229,9.525,0.105
509230,9.527777777777779,0.105
509231,9.530555555555555,0.115
509232,9.533333333333333,0.13
509233,9.536111111111111,0.14
509234,9.53888888888889,0.15
509235,9.541666666666666,0.165
509236,9.544444444444444,0.185
509237,9.547222222222222,0.195
509238,9.55,0.21
509239,9.552777777777777,0.215
509240,9.555555555555555,0.21
509241,9.558333333333334,0.21
509242,9.561111111111112,0.24
509243,9.563888888888888,0.245
509244,9.566666666666666,0.265
509245,9.569444444444445,0.255
509246,9.572222222222223,0.285
509247,9.575,0.315
509248,9.577777777777778,0.34
509249,9.580555555555556,0.375
509250,9.583333333333334,0.39
509251,9.58611111111111,0.39
509252,9.588888888888889,0.395
509253,9.591666666666667,0.38
509254,9.594444444444445,0.385
509255,9.597222222222221,0.43
509256,9.6,0.415
509257,9.602777777777778,0.445
509258,9.605555555555556,0.435
509259,9.608333333333333,0.46
509260,9.61111111111111,0.47
509261,9.613888888888889,0.475
509262,9.616666666666667,0.485
509263,9.619444444444444,0.48
509264,9.622222222222222,0.465
509265,9.625,0.45
509266,9.627777777777778,0.44
509267,9.630555555555556,0.415
509268,9.633333333333333,0.41
509269,9.636111111111111,0.4
509270,9.63888888888889,0.385
509271,9.641666666666667,0.375
509272,9.644444444444444,0.365
509273,9.647222222222222,0.36
509274,9.65,0.345
509275,9.652777777777779,0.33
509276,9.655555555555555,0.31
509277,9.658333333333333,0.305
509278,9.661111111111111,0.29
509279,9.66388888888889,0.255
509280,9.666666666666666,0.235
509281,9.669444444444444,0.205
509282,9.672222222222222,0.2
509283,9.675,0.19
509284,9.677777777777777,0.19
509285,9.680555555555555,0.175
509286,9.683333333333334,0.17
509287,9.686111111111112,0.15
509288,9.688888888888888,0.13
509289,9.691666666666666,0.12
509290,9.694444444444445,0.11
509291,9.697222222222223,0.095
509292,9.7,0.075
509293,9.702777777777778,0.085
509294,9.705555555555556,0.08
509295,9.708333333333334,0.09
509296,9.71111111111111,0.085
509297,9.713888888888889,0.075
509298,9.716666666666667,0.095
509299,9.719444444444445,0.09
509300,9.722222222222221,0.085
509301,9.725,0.05
509302,9.727777777777778,0.055
509303,9.730555555555556,0.045
509304,9.733333333333333,0.03
509305,9.73611111111111,0.03
509306,9.738888888888889,0.04
509307,9.741666666666667,0.06
509308,9.744444444444444,0.06
509309,9.747222222222222,0.09
509310,9.75,0.08
509311,9.752777777777778,0.07
509312,9.755555555555556,0.05
509313,9.758333333333333,0.05
509314,9.761111111111111,0.045
509315,9.76388888888889,0.04
509316,9.766666666666667,0.035
509317,9.769444444444444,0.04
509318,9.772222222222222,0.045
509319,9.775,0.05
509320,9.777777777777779,0.055
509321,9.780555555555555,0.07
509322,9.783333333333333,0.055
509323,9.786111111111111,0.05
509324,9.78888888888889,0.03
509325,9.791666666666666,0.02
509326,9.794444444444444,-0.005
509327,9.797222222222222,-0.015
509328,9.8,-0.015
509329,9.802777777777777,-0.01
509330,9.805555555555555,-0.01
509331,9.808333333333334,-0.02
509332,9.811111111111112,-0.005
509333,9.813888888888888,-0.01
509334,9.816666666666666,-0.02
509335,9.819444444444445,-0.025
509336,9.822222222222223,-0.025
509337,9.825,-0.03
509338,9.827777777777778,-0.045
509339,9.830555555555556,-0.04
509340,9.833333333333334,-0.06
509341,9.83611111111111,-0.07
509342,9.838888888888889,-0.07
509343,9.841666666666667,-0.06
509344,9.844444444444445,-0.07
509345,9.847222222222221,-0.055
509346,9.85,-0.05
509347,9.852777777777778,-0.06
509348,9.855555555555556,-0.075
509349,9.858333333333333,-0.095
509350,9.86111111111111,-0.08
509351,9.863888888888889,-0.085
509352,9.866666666666667,-0.085
509353,9.869444444444444,-0.085
509354,9.872222222222222,-0.09
509355,9.875,-0.08
509356,9.877777777777778,-0.07
509357,9.880555555555556,-0.07
509358,9.883333333333333,-0.07
509359,9.886111111111111,-0.065
509360,9.88888888888889,-0.07
509361,9.891666666666667,-0.08
509362,9.894444444444444,-0.125
509363,9.897222222222222,-0.12
509364,9.9,-0.13
509365,9.902777777777779,-0.12
509366,9.905555555555555,-0.125
509367,9.908333333333333,-0.11
509368,9.911111111111111,-0.095
509369,9.91388888888889,-0.07
509370,9.916666666666666,-0.065
509371,9.919444444444444,-0.085
509372,9.922222222222222,-0.075
509373,9.925,-0.085
509374,9.927777777777777,-0.09
509375,9.930555555555555,-0.105
509376,9.933333333333334,-0.095
509377,9.936111111111112,-0.095
509378,9.938888888888888,-0.075
509379,9.941666666666666,-0.055
509380,9.944444444444445,-0.035
509381,9.947222222222223,-0.015
509382,9.95,-0.01
509383,9.952777777777778,-0.01
509384,9.955555555555556,-0.03
509385,9.958333333333334,-0.01
509386,9.96111111111111,-0.01
509387,9.963888888888889,-0.02
509388,9.966666666666667,-0.005
509389,9.969444444444445,0.01
509390,9.972222222222221,0.035
509391,9.975,0.065
509392,9.977777777777778,0.075
509393,9.980555555555556,0.1
509394,9.983333333333333,0.08
509395,9.98611111111111,0.07
509396,9.988888888888889,0.05
509397,9.991666666666667,0.03
509398,9.994444444444444,0.015
509399,9.997222222222222,-0.005
