source_sample,relative_time_s,raw_MLII
601200,0.0,-0.245
601201,0.002777777777777778,-0.26
601202,0.005555555555555556,-0.265
601203,0.008333333333333333,-0.265
601204,0.011111111111111112,-0.27
601205,0.013888888888888888,-0.275
601206,0.016666666666666666,-0.275
601207,0.019444444444444445,-0.28
601208,0.022222222222222223,-0.28
601209,0.025,-0.28
601210,0.027777777777777776,-0.275
601211,0.030555555555555555,-0.265
601212,0.03333333333333333,-0.26
601213,0.03611111111111111,-0.255
601214,0.03888888888888889,-0.25
601215,0.041666666666666664,-0.24
601216,0.044444444444444446,-0.245
601217,0.04722222222222222,-0.25
601218,0.05,-0.25
601219,0.05277777777777778,-0.265
601220,0.05555555555555555,-0.26
601221,0.058333333333333334,-0.265
601222,0.06111111111111111,-0.25
601223,0.06388888888888888,-0.25
601224,0.06666666666666667,-0.225
601225,0.06944444444444445,-0.225
601226,0.07222222222222222,-0.23
601227,0.075,-0.23
601228,0.07777777777777778,-0.235
601229,0.08055555555555556,-0.23
601230,0.08333333333333333,-0.225
601231,0.08611111111111111,-0.225
601232,0.08888888888888889,-0.225
601233,0.09166666666666666,-0.21
601234,0.09444444444444444,-0.21
601235,0.09722222222222222,-0.195
601236,0.1,-0.185
601237,0.10277777777777777,-0.2
601238,0.10555555555555556,-0.19
601239,0.10833333333333334,-0.205
601240,0.1111111111111111,-0.205
601241,0.11388888888888889,-0.21
601242,0.11666666666666667,-0.195
601243,0.11944444444444445,-0.195
601244,0.12222222222222222,-0.185
601245,0.125,-0.18
601246,0.12777777777777777,-0.175
601247,0.13055555555555556,-0.17
601248,0.13333333333333333,-0.16
601249,0.1361111111111111,-0.18
601250,0.1388888888888889,-0.155
601251,0.14166666666666666,-0.17
601252,0.14444444444444443,-0.175
601253,0.14722222222222223,-0.185
601254,0.15,-0.175
601255,0.1527777777777778,-0.165
601256,0.15555555555555556,-0.17
601257,0.15833333333333333,-0.16
601258,0.16111111111111112,-0.155
601259,0.1638888888888889,-0.145
601260,0.16666666666666666,-0.15
601261,0.16944444444444445,-0.145
601262,0.17222222222222222,-0.14
601263,0.175,-0.15
601264,0.17777777777777778,-0.16
601265,0.18055555555555555,-0.175
601266,0.18333333333333332,-0.165
601267,0.18611111111111112,-0.15
601268,0.18888888888888888,-0.14
601269,0.19166666666666668,-0.125
601270,0.19444444444444445,-0.12
601271,0.19722222222222222,-0.1
601272,0.2,-0.085
601273,0.20277777777777778,-0.08
601274,0.20555555555555555,-0.085
601275,0.20833333333333334,-0.1
601276,0.2111111111111111,-0.105
601277,0.21388888888888888,-0.11
601278,0.21666666666666667,-0.095
601279,0.21944444444444444,-0.08
601280,0.2222222222222222,-0.06
601281,0.225,-0.06
601282,0.22777777777777777,-0.04
601283,0.23055555555555557,-0.055
601284,0.23333333333333334,-0.06
601285,0.2361111111111111,-0.08
601286,0.2388888888888889,-0.08
601287,0.24166666666666667,-0.11
601288,0.24444444444444444,-0.11
601289,0.24722222222222223,-0.12
601290,0.25,-0.13
601291,0.25277777777777777,-0.13
601292,0.25555555555555554,-0.12
601293,0.25833333333333336,-0.11
601294,0.2611111111111111,-0.1
601295,0.2638888888888889,-0.09
601296,0.26666666666666666,-0.095
601297,0.26944444444444443,-0.1
601298,0.2722222222222222,-0.085
601299,0.275,-0.11
601300,0.2777777777777778,-0.11
601301,0.28055555555555556,-0.12
601302,0.2833333333333333,-0.12
601303,0.2861111111111111,-0.11
601304,0.28888888888888886,-0.115
601305,0.2916666666666667,-0.115
601306,0.29444444444444445,-0.115
601307,0.2972222222222222,-0.1
601308,0.3,-0.085
601309,0.30277777777777776,-0.095
601310,0.3055555555555556,-0.085
601311,0.30833333333333335,-0.09
601312,0.3111111111111111,-0.11
601313,0.3138888888888889,-0.12
601314,0.31666666666666665,-0.115
601315,0.3194444444444444,-0.11
601316,0.32222222222222224,-0.11
601317,0.325,-0.1
601318,0.3277777777777778,-0.09
601319,0.33055555555555555,-0.09
601320,0.3333333333333333,-0.07
601321,0.33611111111111114,-0.08
601322,0.3388888888888889,-0.085
601323,0.3416666666666667,-0.095
601324,0.34444444444444444,-0.1
601325,0.3472222222222222,-0.12
601326,0.35,-0.13
601327,0.3527777777777778,-0.115
601328,0.35555555555555557,-0.1
601329,0.35833333333333334,-0.095
601330,0.3611111111111111,-0.085
601331,0.3638888888888889,-0.085
601332,0.36666666666666664,-0.1
601333,0.36944444444444446,-0.09
601334,0.37222222222222223,-0.085
601335,0.375,-0.095
601336,0.37777777777777777,-0.09
601337,0.38055555555555554,-0.115
601338,0.38333333333333336,-0.12
601339,0.3861111111111111,-0.115
601340,0.3888888888888889,-0.11
601341,0.39166666666666666,-0.105
601342,0.39444444444444443,-0.115
601343,0.3972222222222222,-0.095
601344,0.4,-0.085
601345,0.4027777777777778,-0.085
601346,0.40555555555555556,-0.09
601347,0.4083333333333333,-0.1
601348,0.4111111111111111,-0.11
601349,0.41388888888888886,-0.125
601350,0.4166666666666667,-0.135
601351,0.41944444444444445,-0.135
601352,0.4222222222222222,-0.135
601353,0.425,-0.11
601354,0.42777777777777776,-0.105
601355,0.4305555555555556,-0.1
601356,0.43333333333333335,-0.09
601357,0.4361111111111111,-0.075
601358,0.4388888888888889,-0.08
601359,0.44166666666666665,-0.09
601360,0.4444444444444444,-0.085
601361,0.44722222222222224,-0.08
601362,0.45,-0.075
601363,0.4527777777777778,-0.065
601364,0.45555555555555555,-0.055
601365,0.4583333333333333,-0.04
601366,0.46111111111111114,-0.03
601367,0.4638888888888889,0.005
601368,0.4666666666666667,0.02
601369,0.46944444444444444,0.04
601370,0.4722222222222222,0.065
601371,0.475,0.08
601372,0.4777777777777778,0.095
601373,0.48055555555555557,0.07
601374,0.48333333333333334,0.055
601375,0.4861111111111111,0.05
601376,0.4888888888888889,0.055
601377,0.49166666666666664,0.055
601378,0.49444444444444446,0.065
601379,0.49722222222222223,0.07
601380,0.5,0.06
601381,0.5027777777777778,0.055
601382,0.5055555555555555,0.05
601383,0.5083333333333333,0.0
601384,0.5111111111111111,-0.03
601385,0.5138888888888888,-0.065
601386,0.5166666666666667,-0.09
601387,0.5194444444444445,-0.1
601388,0.5222222222222223,-0.11
601389,0.525,-0.12
601390,0.5277777777777778,-0.115
601391,0.5305555555555556,-0.115
601392,0.5333333333333333,-0.115
601393,0.5361111111111111,-0.12
601394,0.5388888888888889,-0.13
601395,0.5416666666666666,-0.14
601396,0.5444444444444444,-0.16
601397,0.5472222222222223,-0.17
601398,0.55,-0.185
601399,0.5527777777777778,-0.185
601400,0.5555555555555556,-0.195
601401,0.5583333333333333,-0.19
601402,0.5611111111111111,-0.18
601403,0.5638888888888889,-0.17
601404,0.5666666666666667,-0.155
601405,0.5694444444444444,-0.14
601406,0.5722222222222222,-0.15
601407,0.575,-0.18
601408,0.5777777777777777,-0.195
601409,0.5805555555555556,-0.21
601410,0.5833333333333334,-0.19
601411,0.5861111111111111,-0.13
601412,0.5888888888888889,-0.02
601413,0.5916666666666667,0.13
601414,0.5944444444444444,0.31
601415,0.5972222222222222,0.55
601416,0.6,0.815
601417,0.6027777777777777,1.1
601418,0.6055555555555555,1.375
601419,0.6083333333333333,1.59
601420,0.6111111111111112,1.69
601421,0.6138888888888889,1.655
601422,0.6166666666666667,1.475
601423,0.6194444444444445,1.21
601424,0.6222222222222222,0.865
601425,0.625,0.52
601426,0.6277777777777778,0.21
601427,0.6305555555555555,0.01
601428,0.6333333333333333,-0.125
601429,0.6361111111111111,-0.19
601430,0.6388888888888888,-0.2
601431,0.6416666666666667,-0.19
601432,0.6444444444444445,-0.155
601433,0.6472222222222223,-0.16
601434,0.65,-0.185
601435,0.6527777777777778,-0.185
601436,0.6555555555555556,-0.205
601437,0.6583333333333333,-0.235
601438,0.6611111111111111,-0.245
601439,0.6638888888888889,-0.25
601440,0.6666666666666666,-0.24
601441,0.6694444444444444,-0.235
601442,0.6722222222222223,-0.23
601443,0.675,-0.24
601444,0.6777777777777778,-0.255
601445,0.6805555555555556,-0.26
601446,0.6833333333333333,-0.275
601447,0.6861111111111111,-0.285
601448,0.6888888888888889,-0.28
601449,0.6916666666666667,-0.28
601450,0.6944444444444444,-0.28
601451,0.6972222222222222,-0.265
601452,0.7,-0.255
601453,0.7027777777777777,-0.23
601454,0.7055555555555556,-0.225
601455,0.7083333333333334,-0.24
601456,0.7111111111111111,-0.255
601457,0.7138888888888889,-0.26
601458,0.7166666666666667,-0.265
601459,0.7194444444444444,-0.27
601460,0.7222222222222222,-0.265
601461,0.725,-0.26
601462,0.7277777777777777,-0.265
601463,0.7305555555555555,-0.245
601464,0.7333333333333333,-0.225
601465,0.7361111111111112,-0.225
601466,0.7388888888888889,-0.215
601467,0.7416666666666667,-0.225
601468,0.7444444444444445,-0.24
601469,0.7472222222222222,-0.25
601470,0.75,-0.245
601471,0.7527777777777778,-0.255
601472,0.7555555555555555,-0.25
601473,0.7583333333333333,-0.245
601474,0.7611111111111111,-0.23
601475,0.7638888888888888,-0.235
601476,0.7666666666666667,-0.225
601477,0.7694444444444445,-0.22
601478,0.7722222222222223,-0.215
601479,0.775,-0.21
601480,0.7777777777777778,-0.22
601481,0.7805555555555556,-0.23
601482,0.7833333333333333,-0.24
601483,0.7861111111111111,-0.23
601484,0.7888888888888889,-0.23
601485,0.7916666666666666,-0.21
601486,0.7944444444444444,-0.2
601487,0.7972222222222223,-0.19
601488,0.8,-0.18
601489,0.8027777777777778,-0.18
601490,0.8055555555555556,-0.16
601491,0.8083333333333333,-0.16
601492,0.8111111111111111,-0.15
601493,0.8138888888888889,-0.165
601494,0.8166666666666667,-0.165
601495,0.8194444444444444,-0.175
601496,0.8222222222222222,-0.185
601497,0.825,-0.175
601498,0.8277777777777777,-0.165
601499,0.8305555555555556,-0.145
601500,0.8333333333333334,-0.15
601501,0.8361111111111111,-0.145
601502,0.8388888888888889,-0.16
601503,0.8416666666666667,-0.14
601504,0.8444444444444444,-0.15
601505,0.8472222222222222,-0.155
601506,0.85,-0.165
601507,0.8527777777777777,-0.17
601508,0.8555555555555555,-0.17
601509,0.8583333333333333,-0.165
601510,0.8611111111111112,-0.16
601511,0.8638888888888889,-0.155
601512,0.8666666666666667,-0.15
601513,0.8694444444444445,-0.155
601514,0.8722222222222222,-0.155
601515,0.875,-0.155
601516,0.8777777777777778,-0.135
601517,0.8805555555555555,-0.13
601518,0.8833333333333333,-0.125
601519,0.8861111111111111,-0.11
601520,0.8888888888888888,-0.115
601521,0.8916666666666667,-0.105
601522,0.8944444444444445,-0.11
601523,0.8972222222222223,-0.09
601524,0.9,-0.07
601525,0.9027777777777778,-0.065
601526,0.9055555555555556,-0.065
601527,0.9083333333333333,-0.065
601528,0.9111111111111111,-0.065
601529,0.9138888888888889,-0.075
601530,0.9166666666666666,-0.075
601531,0.9194444444444444,-0.09
601532,0.9222222222222223,-0.09
601533,0.925,-0.09
601534,0.9277777777777778,-0.09
601535,0.9305555555555556,-0.105
601536,0.9333333333333333,-0.115
601537,0.9361111111111111,-0.11
601538,0.9388888888888889,-0.115
601539,0.9416666666666667,-0.105
601540,0.9444444444444444,-0.12
601541,0.9472222222222222,-0.115
601542,0.95,-0.115
601543,0.9527777777777777,-0.125
601544,0.9555555555555556,-0.12
601545,0.9583333333333334,-0.125
601546,0.9611111111111111,-0.125
601547,0.9638888888888889,-0.125
601548,0.9666666666666667,-0.11
601549,0.9694444444444444,-0.115
601550,0.9722222222222222,-0.115
601551,0.975,-0.12
601552,0.9777777777777777,-0.125
601553,0.9805555555555555,-0.125
601554,0.9833333333333333,-0.12
601555,0.9861111111111112,-0.12
601556,0.9888888888888889,-0.14
601557,0.9916666666666667,-0.13
601558,0.9944444444444445,-0.125
601559,0.9972222222222222,-0.13
601560,1.0,-0.12
601561,1.0027777777777778,-0.11
601562,1.0055555555555555,-0.11
601563,1.0083333333333333,-0.12
601564,1.011111111111111,-0.135
601565,1.0138888888888888,-0.13
601566,1.0166666666666666,-0.13
601567,1.0194444444444444,-0.135
601568,1.0222222222222221,-0.125
601569,1.025,-0.115
601570,1.0277777777777777,-0.105
601571,1.0305555555555554,-0.095
601572,1.0333333333333334,-0.085
601573,1.0361111111111112,-0.085
601574,1.038888888888889,-0.08
601575,1.0416666666666667,-0.1
601576,1.0444444444444445,-0.115
601577,1.0472222222222223,-0.12
601578,1.05,-0.11
601579,1.0527777777777778,-0.11
601580,1.0555555555555556,-0.1
601581,1.0583333333333333,-0.085
601582,1.0611111111111111,-0.09
601583,1.0638888888888889,-0.085
601584,1.0666666666666667,-0.08
601585,1.0694444444444444,-0.08
601586,1.0722222222222222,-0.09
601587,1.075,-0.095
601588,1.0777777777777777,-0.1
601589,1.0805555555555555,-0.12
601590,1.0833333333333333,-0.125
601591,1.086111111111111,-0.12
601592,1.0888888888888888,-0.115
601593,1.0916666666666666,-0.105
601594,1.0944444444444446,-0.11
601595,1.0972222222222223,-0.105
601596,1.1,-0.105
601597,1.1027777777777779,-0.105
601598,1.1055555555555556,-0.095
601599,1.1083333333333334,-0.11
601600,1.1111111111111112,-0.11
601601,1.113888888888889,-0.125
601602,1.1166666666666667,-0.12
601603,1.1194444444444445,-0.12
601604,1.1222222222222222,-0.12
601605,1.125,-0.105
601606,1.1277777777777778,-0.105
601607,1.1305555555555555,-0.095
601608,1.1333333333333333,-0.075
601609,1.136111111111111,-0.075
601610,1.1388888888888888,-0.07
601611,1.1416666666666666,-0.075
601612,1.1444444444444444,-0.085
601613,1.1472222222222221,-0.065
601614,1.15,-0.07
601615,1.1527777777777777,-0.05
601616,1.1555555555555554,-0.03
601617,1.1583333333333334,-0.005
601618,1.1611111111111112,0.03
601619,1.163888888888889,0.06
601620,1.1666666666666667,0.09
601621,1.1694444444444445,0.08
601622,1.1722222222222223,0.06
601623,1.175,0.04
601624,1.1777777777777778,0.015
601625,1.1805555555555556,0.015
601626,1.1833333333333333,0.01
601627,1.1861111111111111,0.0
601628,1.1888888888888889,-0.005
601629,1.1916666666666667,0.0
601630,1.1944444444444444,-0.015
601631,1.1972222222222222,-0.02
601632,1.2,-0.04
601633,1.2027777777777777,-0.075
601634,1.2055555555555555,-0.105
601635,1.2083333333333333,-0.135
601636,1.211111111111111,-0.16
601637,1.2138888888888888,-0.175
601638,1.2166666666666666,-0.18
601639,1.2194444444444446,-0.19
601640,1.2222222222222223,-0.215
601641,1.225,-0.19
601642,1.2277777777777779,-0.185
601643,1.2305555555555556,-0.185
601644,1.2333333333333334,-0.185
601645,1.2361111111111112,-0.18
601646,1.238888888888889,-0.19
601647,1.2416666666666667,-0.195
601648,1.2444444444444445,-0.22
601649,1.2472222222222222,-0.22
601650,1.25,-0.225
601651,1.2527777777777778,-0.245
601652,1.2555555555555555,-0.24
601653,1.2583333333333333,-0.23
601654,1.261111111111111,-0.225
601655,1.2638888888888888,-0.21
601656,1.2666666666666666,-0.155
601657,1.2694444444444444,-0.08
601658,1.2722222222222221,0.055
601659,1.275,0.23
601660,1.2777777777777777,0.48
601661,1.2805555555555554,0.76
601662,1.2833333333333334,1.06
601663,1.2861111111111112,1.37
601664,1.288888888888889,1.585
601665,1.2916666666666667,1.705
601666,1.2944444444444445,1.63
601667,1.2972222222222223,1.42
601668,1.3,1.11
601669,1.3027777777777778,0.74
601670,1.3055555555555556,0.395
601671,1.3083333333333333,0.11
601672,1.3111111111111111,-0.095
601673,1.3138888888888889,-0.205
601674,1.3166666666666667,-0.26
601675,1.3194444444444444,-0.225
601676,1.3222222222222222,-0.195
601677,1.325,-0.16
601678,1.3277777777777777,-0.16
601679,1.3305555555555555,-0.18
601680,1.3333333333333333,-0.205
601681,1.336111111111111,-0.245
601682,1.3388888888888888,-0.27
601683,1.3416666666666666,-0.29
601684,1.3444444444444446,-0.31
601685,1.3472222222222223,-0.315
601686,1.35,-0.31
601687,1.3527777777777779,-0.3
601688,1.3555555555555556,-0.285
601689,1.3583333333333334,-0.28
601690,1.3611111111111112,-0.275
601691,1.363888888888889,-0.27
601692,1.3666666666666667,-0.275
601693,1.3694444444444445,-0.275
601694,1.3722222222222222,-0.27
601695,1.375,-0.275
601696,1.3777777777777778,-0.28
601697,1.3805555555555555,-0.29
601698,1.3833333333333333,-0.29
601699,1.386111111111111,-0.27
601700,1.3888888888888888,-0.265
601701,1.3916666666666666,-0.265
601702,1.3944444444444444,-0.255
601703,1.3972222222222221,-0.255
601704,1.4,-0.25
601705,1.4027777777777777,-0.245
601706,1.4055555555555554,-0.245
601707,1.4083333333333334,-0.25
601708,1.4111111111111112,-0.265
601709,1.413888888888889,-0.255
601710,1.4166666666666667,-0.26
601711,1.4194444444444445,-0.25
601712,1.4222222222222223,-0.245
601713,1.425,-0.235
601714,1.4277777777777778,-0.235
601715,1.4305555555555556,-0.23
601716,1.4333333333333333,-0.23
601717,1.4361111111111111,-0.23
601718,1.4388888888888889,-0.225
601719,1.4416666666666667,-0.24
601720,1.4444444444444444,-0.235
601721,1.4472222222222222,-0.22
601722,1.45,-0.23
601723,1.4527777777777777,-0.205
601724,1.4555555555555555,-0.195
601725,1.4583333333333333,-0.2
601726,1.461111111111111,-0.195
601727,1.4638888888888888,-0.19
601728,1.4666666666666666,-0.185
601729,1.4694444444444446,-0.185
601730,1.4722222222222223,-0.185
601731,1.475,-0.18
601732,1.4777777777777779,-0.18
601733,1.4805555555555556,-0.165
601734,1.4833333333333334,-0.165
601735,1.4861111111111112,-0.155
601736,1.488888888888889,-0.15
601737,1.4916666666666667,-0.15
601738,1.4944444444444445,-0.145
601739,1.4972222222222222,-0.14
601740,1.5,-0.14
601741,1.5027777777777778,-0.14
601742,1.5055555555555555,-0.16
601743,1.5083333333333333,-0.165
601744,1.511111111111111,-0.165
601745,1.5138888888888888,-0.15
601746,1.5166666666666666,-0.17
601747,1.5194444444444444,-0.16
601748,1.5222222222222221,-0.165
601749,1.525,-0.16
601750,1.5277777777777777,-0.175
601751,1.5305555555555554,-0.155
601752,1.5333333333333334,-0.15
601753,1.5361111111111112,-0.155
601754,1.538888888888889,-0.155
601755,1.5416666666666667,-0.14
601756,1.5444444444444445,-0.14
601757,1.5472222222222223,-0.125
601758,1.55,-0.105
601759,1.5527777777777778,-0.095
601760,1.5555555555555556,-0.085
601761,1.5583333333333333,-0.09
601762,1.5611111111111111,-0.08
601763,1.5638888888888889,-0.08
601764,1.5666666666666667,-0.07
601765,1.5694444444444444,-0.075
601766,1.5722222222222222,-0.075
601767,1.575,-0.075
601768,1.5777777777777777,-0.08
601769,1.5805555555555555,-0.085
601770,1.5833333333333333,-0.09
601771,1.586111111111111,-0.1
601772,1.5888888888888888,-0.085
601773,1.5916666666666666,-0.1
601774,1.5944444444444446,-0.095
601775,1.5972222222222223,-0.095
601776,1.6,-0.1
601777,1.6027777777777779,-0.1
601778,1.6055555555555556,-0.095
601779,1.6083333333333334,-0.105
601780,1.6111111111111112,-0.115
601781,1.613888888888889,-0.12
601782,1.6166666666666667,-0.125
601783,1.6194444444444445,-0.12
601784,1.6222222222222222,-0.115
601785,1.625,-0.115
601786,1.6277777777777778,-0.11
601787,1.6305555555555555,-0.105
601788,1.6333333333333333,-0.105
601789,1.636111111111111,-0.105
601790,1.6388888888888888,-0.1
601791,1.6416666666666666,-0.105
601792,1.6444444444444444,-0.11
601793,1.6472222222222221,-0.11
601794,1.65,-0.115
601795,1.6527777777777777,-0.12
601796,1.6555555555555554,-0.115
601797,1.6583333333333334,-0.12
601798,1.6611111111111112,-0.1
601799,1.663888888888889,-0.09
601800,1.6666666666666667,-0.08
601801,1.6694444444444445,-0.075
601802,1.6722222222222223,-0.09
601803,1.675,-0.095
601804,1.6777777777777778,-0.095
601805,1.6805555555555556,-0.1
601806,1.6833333333333333,-0.1
601807,1.6861111111111111,-0.09
601808,1.6888888888888889,-0.09
601809,1.6916666666666667,-0.095
601810,1.6944444444444444,-0.1
601811,1.6972222222222222,-0.1
601812,1.7,-0.085
601813,1.7027777777777777,-0.075
601814,1.7055555555555555,-0.08
601815,1.7083333333333333,-0.085
601816,1.711111111111111,-0.1
601817,1.7138888888888888,-0.11
601818,1.7166666666666666,-0.105
601819,1.7194444444444446,-0.105
601820,1.7222222222222223,-0.085
601821,1.725,-0.08
601822,1.7277777777777779,-0.08
601823,1.7305555555555556,-0.075
601824,1.7333333333333334,-0.07
601825,1.7361111111111112,-0.07
601826,1.738888888888889,-0.075
601827,1.7416666666666667,-0.085
601828,1.7444444444444445,-0.09
601829,1.7472222222222222,-0.105
601830,1.75,-0.105
601831,1.7527777777777778,-0.105
601832,1.7555555555555555,-0.105
601833,1.7583333333333333,-0.09
601834,1.761111111111111,-0.09
601835,1.7638888888888888,-0.09
601836,1.7666666666666666,-0.095
601837,1.7694444444444444,-0.09
601838,1.7722222222222221,-0.08
601839,1.775,-0.09
601840,1.7777777777777777,-0.105
601841,1.7805555555555554,-0.11
601842,1.7833333333333334,-0.115
601843,1.7861111111111112,-0.12
601844,1.788888888888889,-0.105
601845,1.7916666666666667,-0.095
601846,1.7944444444444445,-0.075
601847,1.7972222222222223,-0.08
601848,1.8,-0.065
601849,1.8027777777777778,-0.055
601850,1.8055555555555556,-0.045
601851,1.8083333333333333,-0.055
601852,1.8111111111111111,-0.055
601853,1.8138888888888889,-0.055
601854,1.8166666666666667,-0.04
601855,1.8194444444444444,-0.03
601856,1.8222222222222222,-0.02
601857,1.825,0.02
601858,1.8277777777777777,0.05
601859,1.8305555555555555,0.08
601860,1.8333333333333333,0.095
601861,1.836111111111111,0.11
601862,1.8388888888888888,0.1
601863,1.8416666666666666,0.08
601864,1.8444444444444446,0.055
601865,1.8472222222222223,0.045
601866,1.85,0.025
601867,1.8527777777777779,0.025
601868,1.8555555555555556,0.01
601869,1.8583333333333334,0.005
601870,1.8611111111111112,-0.01
601871,1.863888888888889,-0.025
601872,1.8666666666666667,-0.03
601873,1.8694444444444445,-0.05
601874,1.8722222222222222,-0.08
601875,1.875,-0.12
601876,1.8777777777777778,-0.135
601877,1.8805555555555555,-0.145
601878,1.8833333333333333,-0.175
601879,1.886111111111111,-0.175
601880,1.8888888888888888,-0.185
601881,1.8916666666666666,-0.185
601882,1.8944444444444444,-0.17
601883,1.8972222222222221,-0.16
601884,1.9,-0.145
601885,1.9027777777777777,-0.16
601886,1.9055555555555554,-0.155
601887,1.9083333333333334,-0.175
601888,1.9111111111111112,-0.185
601889,1.913888888888889,-0.205
601890,1.9166666666666667,-0.205
601891,1.9194444444444445,-0.22
601892,1.9222222222222223,-0.215
601893,1.925,-0.23
601894,1.9277777777777778,-0.23
601895,1.9305555555555556,-0.225
601896,1.9333333333333333,-0.195
601897,1.9361111111111111,-0.13
601898,1.9388888888888889,-0.03
601899,1.9416666666666667,0.1
601900,1.9444444444444444,0.295
601901,1.9472222222222222,0.535
601902,1.95,0.805
601903,1.9527777777777777,1.095
601904,1.9555555555555555,1.36
601905,1.9583333333333333,1.57
601906,1.961111111111111,1.645
601907,1.9638888888888888,1.58
601908,1.9666666666666666,1.395
601909,1.9694444444444446,1.1
601910,1.9722222222222223,0.76
601911,1.975,0.44
601912,1.9777777777777779,0.165
601913,1.9805555555555556,-0.02
601914,1.9833333333333334,-0.155
601915,1.9861111111111112,-0.225
601916,1.988888888888889,-0.235
601917,1.9916666666666667,-0.21
601918,1.9944444444444445,-0.165
601919,1.9972222222222222,-0.145
601920,2.0,-0.145
601921,2.0027777777777778,-0.15
601922,2.0055555555555555,-0.2
601923,2.0083333333333333,-0.225
601924,2.011111111111111,-0.255
601925,2.013888888888889,-0.26
601926,2.0166666666666666,-0.285
601927,2.0194444444444444,-0.28
601928,2.022222222222222,-0.29
601929,2.025,-0.275
601930,2.0277777777777777,-0.275
601931,2.0305555555555554,-0.265
601932,2.033333333333333,-0.26
601933,2.036111111111111,-0.26
601934,2.0388888888888888,-0.265
601935,2.0416666666666665,-0.26
601936,2.0444444444444443,-0.265
601937,2.047222222222222,-0.275
601938,2.05,-0.295
601939,2.0527777777777776,-0.295
601940,2.0555555555555554,-0.285
601941,2.058333333333333,-0.285
601942,2.061111111111111,-0.27
601943,2.063888888888889,-0.26
601944,2.066666666666667,-0.235
601945,2.0694444444444446,-0.24
601946,2.0722222222222224,-0.25
601947,2.075,-0.255
601948,2.077777777777778,-0.26
601949,2.0805555555555557,-0.26
601950,2.0833333333333335,-0.27
601951,2.0861111111111112,-0.275
601952,2.088888888888889,-0.28
601953,2.091666666666667,-0.285
601954,2.0944444444444446,-0.265
601955,2.0972222222222223,-0.24
601956,2.1,-0.245
601957,2.102777777777778,-0.24
601958,2.1055555555555556,-0.245
601959,2.1083333333333334,-0.245
601960,2.111111111111111,-0.245
601961,2.113888888888889,-0.25
601962,2.1166666666666667,-0.245
601963,2.1194444444444445,-0.25
601964,2.1222222222222222,-0.245
601965,2.125,-0.225
601966,2.1277777777777778,-0.225
601967,2.1305555555555555,-0.205
601968,2.1333333333333333,-0.195
601969,2.136111111111111,-0.21
601970,2.138888888888889,-0.2
601971,2.1416666666666666,-0.215
601972,2.1444444444444444,-0.225
601973,2.147222222222222,-0.22
601974,2.15,-0.225
601975,2.1527777777777777,-0.215
601976,2.1555555555555554,-0.205
601977,2.158333333333333,-0.19
601978,2.161111111111111,-0.185
601979,2.1638888888888888,-0.185
601980,2.1666666666666665,-0.16
601981,2.1694444444444443,-0.16
601982,2.172222222222222,-0.155
601983,2.175,-0.165
601984,2.1777777777777776,-0.17
601985,2.1805555555555554,-0.18
601986,2.183333333333333,-0.185
601987,2.186111111111111,-0.19
601988,2.188888888888889,-0.185
601989,2.191666666666667,-0.2
601990,2.1944444444444446,-0.175
601991,2.1972222222222224,-0.165
601992,2.2,-0.16
601993,2.202777777777778,-0.155
601994,2.2055555555555557,-0.165
601995,2.2083333333333335,-0.17
601996,2.2111111111111112,-0.165
601997,2.213888888888889,-0.18
601998,2.216666666666667,-0.18
601999,2.2194444444444446,-0.18
602000,2.2222222222222223,-0.185
602001,2.225,-0.185
602002,2.227777777777778,-0.155
602003,2.2305555555555556,-0.145
602004,2.2333333333333334,-0.115
602005,2.236111111111111,-0.105
602006,2.238888888888889,-0.09
602007,2.2416666666666667,-0.09
602008,2.2444444444444445,-0.095
602009,2.2472222222222222,-0.105
602010,2.25,-0.105
602011,2.2527777777777778,-0.095
602012,2.2555555555555555,-0.11
602013,2.2583333333333333,-0.1
602014,2.261111111111111,-0.1
602015,2.263888888888889,-0.1
602016,2.2666666666666666,-0.095
602017,2.2694444444444444,-0.105
602018,2.272222222222222,-0.1
602019,2.275,-0.11
602020,2.2777777777777777,-0.115
602021,2.2805555555555554,-0.135
602022,2.283333333333333,-0.145
602023,2.286111111111111,-0.145
602024,2.2888888888888888,-0.145
602025,2.2916666666666665,-0.16
602026,2.2944444444444443,-0.12
602027,2.297222222222222,-0.125
602028,2.3,-0.115
602029,2.3027777777777776,-0.115
602030,2.3055555555555554,-0.11
602031,2.308333333333333,-0.115
602032,2.311111111111111,-0.14
602033,2.313888888888889,-0.135
602034,2.316666666666667,-0.145
602035,2.3194444444444446,-0.145
602036,2.3222222222222224,-0.15
602037,2.325,-0.15
602038,2.327777777777778,-0.15
602039,2.3305555555555557,-0.13
602040,2.3333333333333335,-0.125
602041,2.3361111111111112,-0.11
602042,2.338888888888889,-0.115
602043,2.341666666666667,-0.11
602044,2.3444444444444446,-0.12
602045,2.3472222222222223,-0.125
602046,2.35,-0.12
602047,2.352777777777778,-0.115
602048,2.3555555555555556,-0.125
602049,2.3583333333333334,-0.12
602050,2.361111111111111,-0.115
602051,2.363888888888889,-0.125
602052,2.3666666666666667,-0.12
602053,2.3694444444444445,-0.125
602054,2.3722222222222222,-0.11
602055,2.375,-0.11
602056,2.3777777777777778,-0.115
602057,2.3805555555555555,-0.12
602058,2.3833333333333333,-0.125
602059,2.386111111111111,-0.125
602060,2.388888888888889,-0.125
602061,2.3916666666666666,-0.12
602062,2.3944444444444444,-0.12
602063,2.397222222222222,-0.115
602064,2.4,-0.125
602065,2.4027777777777777,-0.12
602066,2.4055555555555554,-0.12
602067,2.408333333333333,-0.12
602068,2.411111111111111,-0.12
602069,2.4138888888888888,-0.13
602070,2.4166666666666665,-0.145
602071,2.4194444444444443,-0.15
602072,2.422222222222222,-0.13
602073,2.425,-0.135
602074,2.4277777777777776,-0.125
602075,2.4305555555555554,-0.125
602076,2.433333333333333,-0.125
602077,2.436111111111111,-0.12
602078,2.438888888888889,-0.125
602079,2.441666666666667,-0.13
602080,2.4444444444444446,-0.13
602081,2.4472222222222224,-0.15
602082,2.45,-0.15
602083,2.452777777777778,-0.15
602084,2.4555555555555557,-0.14
602085,2.4583333333333335,-0.14
602086,2.4611111111111112,-0.13
602087,2.463888888888889,-0.135
602088,2.466666666666667,-0.13
602089,2.4694444444444446,-0.15
602090,2.4722222222222223,-0.135
602091,2.475,-0.15
602092,2.477777777777778,-0.125
602093,2.4805555555555556,-0.125
602094,2.4833333333333334,-0.115
602095,2.486111111111111,-0.105
602096,2.488888888888889,-0.09
602097,2.4916666666666667,-0.075
602098,2.4944444444444445,-0.07
602099,2.4972222222222222,-0.06
602100,2.5,-0.045
602101,2.5027777777777778,-0.055
602102,2.5055555555555555,-0.045
602103,2.5083333333333333,-0.025
602104,2.511111111111111,0.0
602105,2.513888888888889,0.025
602106,2.5166666666666666,0.035
602107,2.5194444444444444,0.045
602108,2.522222222222222,0.045
602109,2.525,0.045
602110,2.5277777777777777,0.045
602111,2.5305555555555554,0.05
602112,2.533333333333333,0.045
602113,2.536111111111111,0.03
602114,2.5388888888888888,0.025
602115,2.5416666666666665,0.01
602116,2.5444444444444443,-0.015
602117,2.547222222222222,-0.03
602118,2.55,-0.075
602119,2.5527777777777776,-0.11
602120,2.5555555555555554,-0.115
602121,2.558333333333333,-0.125
602122,2.561111111111111,-0.14
602123,2.563888888888889,-0.145
602124,2.566666666666667,-0.15
602125,2.5694444444444446,-0.175
602126,2.5722222222222224,-0.19
602127,2.575,-0.19
602128,2.577777777777778,-0.2
602129,2.5805555555555557,-0.215
602130,2.5833333333333335,-0.225
602131,2.5861111111111112,-0.22
602132,2.588888888888889,-0.225
602133,2.591666666666667,-0.215
602134,2.5944444444444446,-0.205
602135,2.5972222222222223,-0.19
602136,2.6,-0.2
602137,2.602777777777778,-0.22
602138,2.6055555555555556,-0.215
602139,2.6083333333333334,-0.235
602140,2.611111111111111,-0.23
602141,2.613888888888889,-0.25
602142,2.6166666666666667,-0.255
602143,2.6194444444444445,-0.27
602144,2.6222222222222222,-0.27
602145,2.625,-0.215
602146,2.6277777777777778,-0.13
602147,2.6305555555555555,0.015
602148,2.6333333333333333,0.21
602149,2.636111111111111,0.455
602150,2.638888888888889,0.74
602151,2.6416666666666666,1.045
602152,2.6444444444444444,1.325
602153,2.647222222222222,1.52
602154,2.65,1.58
602155,2.6527777777777777,1.47
602156,2.6555555555555554,1.215
602157,2.658333333333333,0.875
602158,2.661111111111111,0.53
602159,2.6638888888888888,0.2
602160,2.6666666666666665,-0.02
602161,2.6694444444444443,-0.17
602162,2.672222222222222,-0.245
602163,2.675,-0.255
602164,2.6777777777777776,-0.245
602165,2.6805555555555554,-0.22
602166,2.683333333333333,-0.205
602167,2.686111111111111,-0.2
602168,2.688888888888889,-0.22
602169,2.691666666666667,-0.245
602170,2.6944444444444446,-0.27
602171,2.6972222222222224,-0.285
602172,2.7,-0.29
602173,2.702777777777778,-0.29
602174,2.7055555555555557,-0.295
602175,2.7083333333333335,-0.29
602176,2.7111111111111112,-0.295
602177,2.713888888888889,-0.315
602178,2.716666666666667,-0.32
602179,2.7194444444444446,-0.325
602180,2.7222222222222223,-0.31
602181,2.725,-0.31
602182,2.727777777777778,-0.31
602183,2.7305555555555556,-0.3
602184,2.7333333333333334,-0.295
602185,2.736111111111111,-0.29
602186,2.738888888888889,-0.285
602187,2.7416666666666667,-0.31
602188,2.7444444444444445,-0.305
602189,2.7472222222222222,-0.315
602190,2.75,-0.305
602191,2.7527777777777778,-0.305
602192,2.7555555555555555,-0.295
602193,2.7583333333333333,-0.305
602194,2.761111111111111,-0.31
602195,2.763888888888889,-0.31
602196,2.7666666666666666,-0.285
602197,2.7694444444444444,-0.28
602198,2.772222222222222,-0.29
602199,2.775,-0.295
602200,2.7777777777777777,-0.3
602201,2.7805555555555554,-0.295
602202,2.783333333333333,-0.285
602203,2.786111111111111,-0.29
602204,2.7888888888888888,-0.29
602205,2.7916666666666665,-0.28
602206,2.7944444444444443,-0.27
602207,2.797222222222222,-0.255
602208,2.8,-0.25
602209,2.8027777777777776,-0.25
602210,2.8055555555555554,-0.245
602211,2.808333333333333,-0.25
602212,2.811111111111111,-0.26
602213,2.813888888888889,-0.255
602214,2.816666666666667,-0.245
602215,2.8194444444444446,-0.24
602216,2.8222222222222224,-0.24
602217,2.825,-0.235
602218,2.827777777777778,-0.24
602219,2.8305555555555557,-0.24
602220,2.8333333333333335,-0.215
602221,2.8361111111111112,-0.215
602222,2.838888888888889,-0.23
602223,2.841666666666667,-0.22
602224,2.8444444444444446,-0.215
602225,2.8472222222222223,-0.215
602226,2.85,-0.215
602227,2.852777777777778,-0.215
602228,2.8555555555555556,-0.215
602229,2.8583333333333334,-0.215
602230,2.861111111111111,-0.225
602231,2.863888888888889,-0.205
602232,2.8666666666666667,-0.2
602233,2.8694444444444445,-0.2
602234,2.8722222222222222,-0.19
602235,2.875,-0.19
602236,2.8777777777777778,-0.19
602237,2.8805555555555555,-0.185
602238,2.8833333333333333,-0.185
602239,2.886111111111111,-0.195
602240,2.888888888888889,-0.195
602241,2.8916666666666666,-0.205
602242,2.8944444444444444,-0.2
602243,2.897222222222222,-0.195
602244,2.9,-0.17
602245,2.9027777777777777,-0.175
602246,2.9055555555555554,-0.155
602247,2.908333333333333,-0.14
602248,2.911111111111111,-0.13
602249,2.9138888888888888,-0.12
602250,2.9166666666666665,-0.12
602251,2.9194444444444443,-0.11
602252,2.922222222222222,-0.125
602253,2.925,-0.13
602254,2.9277777777777776,-0.14
602255,2.9305555555555554,-0.14
602256,2.933333333333333,-0.13
602257,2.936111111111111,-0.13
602258,2.938888888888889,-0.15
602259,2.941666666666667,-0.135
602260,2.9444444444444446,-0.135
602261,2.9472222222222224,-0.135
602262,2.95,-0.145
602263,2.952777777777778,-0.15
602264,2.9555555555555557,-0.155
602265,2.9583333333333335,-0.165
602266,2.9611111111111112,-0.155
602267,2.963888888888889,-0.165
602268,2.966666666666667,-0.16
602269,2.9694444444444446,-0.17
602270,2.9722222222222223,-0.16
602271,2.975,-0.165
602272,2.977777777777778,-0.175
602273,2.9805555555555556,-0.165
602274,2.9833333333333334,-0.165
602275,2.986111111111111,-0.165
602276,2.988888888888889,-0.16
602277,2.9916666666666667,-0.155
602278,2.9944444444444445,-0.155
602279,2.9972222222222222,-0.14
602280,3.0,-0.15
602281,3.0027777777777778,-0.155
602282,3.0055555555555555,-0.15
602283,3.0083333333333333,-0.165
602284,3.011111111111111,-0.175
602285,3.013888888888889,-0.165
602286,3.0166666666666666,-0.175
602287,3.0194444444444444,-0.16
602288,3.022222222222222,-0.16
602289,3.025,-0.145
602290,3.0277777777777777,-0.155
602291,3.0305555555555554,-0.135
602292,3.033333333333333,-0.14
602293,3.036111111111111,-0.14
602294,3.0388888888888888,-0.15
602295,3.0416666666666665,-0.16
602296,3.0444444444444443,-0.165
602297,3.047222222222222,-0.15
602298,3.05,-0.145
602299,3.0527777777777776,-0.15
602300,3.0555555555555554,-0.16
602301,3.058333333333333,-0.15
602302,3.061111111111111,-0.145
602303,3.063888888888889,-0.14
602304,3.066666666666667,-0.145
602305,3.0694444444444446,-0.15
602306,3.0722222222222224,-0.155
602307,3.075,-0.17
602308,3.077777777777778,-0.17
602309,3.0805555555555557,-0.175
602310,3.0833333333333335,-0.17
602311,3.0861111111111112,-0.175
602312,3.088888888888889,-0.18
602313,3.091666666666667,-0.175
602314,3.0944444444444446,-0.16
602315,3.0972222222222223,-0.155
602316,3.1,-0.15
602317,3.102777777777778,-0.15
602318,3.1055555555555556,-0.155
602319,3.1083333333333334,-0.16
602320,3.111111111111111,-0.17
602321,3.113888888888889,-0.175
602322,3.1166666666666667,-0.175
602323,3.1194444444444445,-0.175
602324,3.1222222222222222,-0.17
602325,3.125,-0.165
602326,3.1277777777777778,-0.16
602327,3.1305555555555555,-0.16
602328,3.1333333333333333,-0.145
602329,3.136111111111111,-0.14
602330,3.138888888888889,-0.15
602331,3.1416666666666666,-0.155
602332,3.1444444444444444,-0.16
602333,3.147222222222222,-0.17
602334,3.15,-0.16
602335,3.1527777777777777,-0.16
602336,3.1555555555555554,-0.15
602337,3.158333333333333,-0.14
602338,3.161111111111111,-0.125
602339,3.1638888888888888,-0.115
602340,3.1666666666666665,-0.095
602341,3.1694444444444443,-0.055
602342,3.172222222222222,-0.045
602343,3.175,-0.05
602344,3.1777777777777776,-0.045
602345,3.1805555555555554,-0.025
602346,3.183333333333333,-0.01
602347,3.186111111111111,-0.015
602348,3.188888888888889,0.005
602349,3.191666666666667,0.0
602350,3.1944444444444446,0.015
602351,3.1972222222222224,0.005
602352,3.2,-0.015
602353,3.202777777777778,-0.02
602354,3.2055555555555557,-0.015
602355,3.2083333333333335,-0.015
602356,3.2111111111111112,-0.02
602357,3.213888888888889,-0.035
602358,3.216666666666667,-0.04
602359,3.2194444444444446,-0.065
602360,3.2222222222222223,-0.08
602361,3.225,-0.115
602362,3.227777777777778,-0.14
602363,3.2305555555555556,-0.15
602364,3.2333333333333334,-0.15
602365,3.236111111111111,-0.16
602366,3.238888888888889,-0.165
602367,3.2416666666666667,-0.165
602368,3.2444444444444445,-0.18
602369,3.2472222222222222,-0.21
602370,3.25,-0.23
602371,3.2527777777777778,-0.235
602372,3.2555555555555555,-0.245
602373,3.2583333333333333,-0.25
602374,3.261111111111111,-0.26
602375,3.263888888888889,-0.24
602376,3.2666666666666666,-0.235
602377,3.2694444444444444,-0.23
602378,3.272222222222222,-0.24
602379,3.275,-0.235
602380,3.2777777777777777,-0.235
602381,3.2805555555555554,-0.23
602382,3.283333333333333,-0.24
602383,3.286111111111111,-0.255
602384,3.2888888888888888,-0.25
602385,3.2916666666666665,-0.265
602386,3.2944444444444443,-0.275
602387,3.297222222222222,-0.265
602388,3.3,-0.25
602389,3.3027777777777776,-0.195
602390,3.3055555555555554,-0.11
602391,3.308333333333333,0.035
602392,3.311111111111111,0.235
602393,3.313888888888889,0.48
602394,3.316666666666667,0.725
602395,3.3194444444444446,1.01
602396,3.3222222222222224,1.28
602397,3.325,1.495
602398,3.327777777777778,1.62
602399,3.3305555555555557,1.59
602400,3.3333333333333335,1.43
602401,3.3361111111111112,1.14
602402,3.338888888888889,0.83
602403,3.341666666666667,0.48
602404,3.3444444444444446,0.195
602405,3.3472222222222223,-0.015
602406,3.35,-0.155
602407,3.352777777777778,-0.245
602408,3.3555555555555556,-0.27
602409,3.3583333333333334,-0.25
602410,3.361111111111111,-0.235
602411,3.363888888888889,-0.215
602412,3.3666666666666667,-0.205
602413,3.3694444444444445,-0.22
602414,3.3722222222222222,-0.25
602415,3.375,-0.265
602416,3.3777777777777778,-0.315
602417,3.3805555555555555,-0.325
602418,3.3833333333333333,-0.33
602419,3.386111111111111,-0.325
602420,3.388888888888889,-0.33
602421,3.3916666666666666,-0.32
602422,3.3944444444444444,-0.31
602423,3.397222222222222,-0.3
602424,3.4,-0.31
602425,3.4027777777777777,-0.32
602426,3.4055555555555554,-0.33
602427,3.408333333333333,-0.335
602428,3.411111111111111,-0.325
602429,3.4138888888888888,-0.325
602430,3.4166666666666665,-0.325
602431,3.4194444444444443,-0.33
602432,3.422222222222222,-0.325
602433,3.425,-0.325
602434,3.4277777777777776,-0.31
602435,3.4305555555555554,-0.315
602436,3.433333333333333,-0.305
602437,3.436111111111111,-0.305
602438,3.438888888888889,-0.31
602439,3.441666666666667,-0.315
602440,3.4444444444444446,-0.315
602441,3.4472222222222224,-0.32
602442,3.45,-0.325
602443,3.452777777777778,-0.32
602444,3.4555555555555557,-0.31
602445,3.4583333333333335,-0.315
602446,3.4611111111111112,-0.305
602447,3.463888888888889,-0.295
602448,3.466666666666667,-0.29
602449,3.4694444444444446,-0.305
602450,3.4722222222222223,-0.31
602451,3.475,-0.315
602452,3.477777777777778,-0.32
602453,3.4805555555555556,-0.3
602454,3.4833333333333334,-0.315
602455,3.486111111111111,-0.31
602456,3.488888888888889,-0.31
602457,3.4916666666666667,-0.29
602458,3.4944444444444445,-0.28
602459,3.4972222222222222,-0.265
602460,3.5,-0.24
602461,3.5027777777777778,-0.25
602462,3.5055555555555555,-0.245
602463,3.5083333333333333,-0.25
602464,3.511111111111111,-0.25
602465,3.513888888888889,-0.26
602466,3.5166666666666666,-0.265
602467,3.5194444444444444,-0.265
602468,3.522222222222222,-0.27
602469,3.525,-0.255
602470,3.5277777777777777,-0.245
602471,3.5305555555555554,-0.22
602472,3.533333333333333,-0.21
602473,3.536111111111111,-0.23
602474,3.5388888888888888,-0.25
602475,3.5416666666666665,-0.235
602476,3.5444444444444443,-0.24
602477,3.547222222222222,-0.225
602478,3.55,-0.225
602479,3.5527777777777776,-0.215
602480,3.5555555555555554,-0.215
602481,3.558333333333333,-0.215
602482,3.561111111111111,-0.21
602483,3.563888888888889,-0.21
602484,3.566666666666667,-0.195
602485,3.5694444444444446,-0.205
602486,3.5722222222222224,-0.21
602487,3.575,-0.215
602488,3.577777777777778,-0.23
602489,3.5805555555555557,-0.23
602490,3.5833333333333335,-0.23
602491,3.5861111111111112,-0.235
602492,3.588888888888889,-0.205
602493,3.591666666666667,-0.18
602494,3.5944444444444446,-0.16
602495,3.5972222222222223,-0.155
602496,3.6,-0.15
602497,3.602777777777778,-0.15
602498,3.6055555555555556,-0.165
602499,3.6083333333333334,-0.155
602500,3.611111111111111,-0.165
602501,3.613888888888889,-0.175
602502,3.6166666666666667,-0.165
602503,3.6194444444444445,-0.16
602504,3.6222222222222222,-0.145
602505,3.625,-0.145
602506,3.6277777777777778,-0.14
602507,3.6305555555555555,-0.125
602508,3.6333333333333333,-0.145
602509,3.636111111111111,-0.15
602510,3.638888888888889,-0.15
602511,3.6416666666666666,-0.17
602512,3.6444444444444444,-0.185
602513,3.647222222222222,-0.185
602514,3.65,-0.18
602515,3.6527777777777777,-0.2
602516,3.6555555555555554,-0.19
602517,3.658333333333333,-0.18
602518,3.661111111111111,-0.17
602519,3.6638888888888888,-0.16
602520,3.6666666666666665,-0.165
602521,3.6694444444444443,-0.16
602522,3.672222222222222,-0.18
602523,3.675,-0.175
602524,3.6777777777777776,-0.175
602525,3.6805555555555554,-0.185
602526,3.683333333333333,-0.185
602527,3.686111111111111,-0.185
602528,3.688888888888889,-0.185
602529,3.691666666666667,-0.18
602530,3.6944444444444446,-0.175
602531,3.6972222222222224,-0.16
602532,3.7,-0.155
602533,3.702777777777778,-0.155
602534,3.7055555555555557,-0.165
602535,3.7083333333333335,-0.175
602536,3.7111111111111112,-0.17
602537,3.713888888888889,-0.175
602538,3.716666666666667,-0.195
602539,3.7194444444444446,-0.21
602540,3.7222222222222223,-0.2
602541,3.725,-0.19
602542,3.727777777777778,-0.175
602543,3.7305555555555556,-0.155
602544,3.7333333333333334,-0.15
602545,3.736111111111111,-0.155
602546,3.738888888888889,-0.155
602547,3.7416666666666667,-0.15
602548,3.7444444444444445,-0.155
602549,3.7472222222222222,-0.17
602550,3.75,-0.17
602551,3.7527777777777778,-0.185
602552,3.7555555555555555,-0.18
602553,3.7583333333333333,-0.185
602554,3.761111111111111,-0.17
602555,3.763888888888889,-0.15
602556,3.7666666666666666,-0.15
602557,3.7694444444444444,-0.165
602558,3.772222222222222,-0.155
602559,3.775,-0.17
602560,3.7777777777777777,-0.175
602561,3.7805555555555554,-0.195
602562,3.783333333333333,-0.215
602563,3.786111111111111,-0.2
602564,3.7888888888888888,-0.21
602565,3.7916666666666665,-0.2
602566,3.7944444444444443,-0.19
602567,3.797222222222222,-0.175
602568,3.8,-0.165
602569,3.8027777777777776,-0.165
602570,3.8055555555555554,-0.16
602571,3.808333333333333,-0.17
602572,3.811111111111111,-0.18
602573,3.813888888888889,-0.19
602574,3.816666666666667,-0.185
602575,3.8194444444444446,-0.195
602576,3.8222222222222224,-0.195
602577,3.825,-0.19
602578,3.827777777777778,-0.19
602579,3.8305555555555557,-0.185
602580,3.8333333333333335,-0.175
602581,3.8361111111111112,-0.165
602582,3.838888888888889,-0.175
602583,3.841666666666667,-0.18
602584,3.8444444444444446,-0.18
602585,3.8472222222222223,-0.175
602586,3.85,-0.17
602587,3.852777777777778,-0.165
602588,3.8555555555555556,-0.155
602589,3.8583333333333334,-0.15
602590,3.861111111111111,-0.135
602591,3.863888888888889,-0.115
602592,3.8666666666666667,-0.095
602593,3.8694444444444445,-0.075
602594,3.8722222222222222,-0.055
602595,3.875,-0.035
602596,3.8777777777777778,-0.015
602597,3.8805555555555555,-0.005
602598,3.8833333333333333,-0.01
602599,3.886111111111111,-0.025
602600,3.888888888888889,-0.03
602601,3.8916666666666666,-0.04
602602,3.8944444444444444,-0.035
602603,3.897222222222222,-0.04
602604,3.9,-0.025
602605,3.9027777777777777,-0.02
602606,3.9055555555555554,-0.03
602607,3.908333333333333,-0.055
602608,3.911111111111111,-0.08
602609,3.9138888888888888,-0.105
602610,3.9166666666666665,-0.145
602611,3.9194444444444443,-0.18
602612,3.922222222222222,-0.185
602613,3.925,-0.21
602614,3.9277777777777776,-0.215
602615,3.9305555555555554,-0.22
602616,3.933333333333333,-0.21
602617,3.936111111111111,-0.225
602618,3.938888888888889,-0.235
602619,3.941666666666667,-0.235
602620,3.9444444444444446,-0.25
602621,3.9472222222222224,-0.265
602622,3.95,-0.27
602623,3.952777777777778,-0.275
602624,3.9555555555555557,-0.275
602625,3.9583333333333335,-0.285
602626,3.9611111111111112,-0.27
602627,3.963888888888889,-0.27
602628,3.966666666666667,-0.255
602629,3.9694444444444446,-0.26
602630,3.9722222222222223,-0.26
602631,3.975,-0.275
602632,3.977777777777778,-0.29
602633,3.9805555555555556,-0.3
602634,3.9833333333333334,-0.305
602635,3.986111111111111,-0.295
602636,3.988888888888889,-0.26
602637,3.9916666666666667,-0.19
602638,3.9944444444444445,-0.06
602639,3.9972222222222222,0.115
602640,4.0,0.345
602641,4.002777777777778,0.61
602642,4.0055555555555555,0.895
602643,4.008333333333334,1.165
602644,4.011111111111111,1.4
602645,4.013888888888889,1.57
602646,4.016666666666667,1.63
602647,4.019444444444445,1.57
602648,4.022222222222222,1.375
602649,4.025,1.105
602650,4.027777777777778,0.775
602651,4.030555555555556,0.455
602652,4.033333333333333,0.195
602653,4.036111111111111,-0.015
602654,4.038888888888889,-0.16
602655,4.041666666666667,-0.23
602656,4.044444444444444,-0.27
602657,4.0472222222222225,-0.275
602658,4.05,-0.265
602659,4.052777777777778,-0.255
602660,4.055555555555555,-0.245
602661,4.058333333333334,-0.26
602662,4.061111111111111,-0.265
602663,4.063888888888889,-0.285
602664,4.066666666666666,-0.31
602665,4.069444444444445,-0.34
602666,4.072222222222222,-0.345
602667,4.075,-0.355
602668,4.0777777777777775,-0.35
602669,4.080555555555556,-0.36
602670,4.083333333333333,-0.365
602671,4.086111111111111,-0.36
602672,4.088888888888889,-0.36
602673,4.091666666666667,-0.355
602674,4.094444444444444,-0.35
602675,4.097222222222222,-0.35
602676,4.1,-0.35
602677,4.102777777777778,-0.35
602678,4.105555555555555,-0.355
602679,4.108333333333333,-0.34
602680,4.111111111111111,-0.355
602681,4.113888888888889,-0.365
602682,4.116666666666666,-0.37
602683,4.1194444444444445,-0.365
602684,4.122222222222222,-0.375
602685,4.125,-0.365
602686,4.127777777777778,-0.355
602687,4.1305555555555555,-0.355
602688,4.133333333333334,-0.345
602689,4.136111111111111,-0.36
602690,4.138888888888889,-0.34
602691,4.141666666666667,-0.345
602692,4.144444444444445,-0.345
602693,4.147222222222222,-0.35
602694,4.15,-0.355
602695,4.152777777777778,-0.36
602696,4.155555555555556,-0.355
602697,4.158333333333333,-0.35
602698,4.161111111111111,-0.33
602699,4.163888888888889,-0.33
602700,4.166666666666667,-0.325
602701,4.169444444444444,-0.33
602702,4.1722222222222225,-0.33
602703,4.175,-0.32
602704,4.177777777777778,-0.32
602705,4.180555555555555,-0.32
602706,4.183333333333334,-0.32
602707,4.186111111111111,-0.325
602708,4.188888888888889,-0.32
602709,4.191666666666666,-0.315
602710,4.194444444444445,-0.325
602711,4.197222222222222,-0.3
602712,4.2,-0.3
602713,4.2027777777777775,-0.3
602714,4.205555555555556,-0.3
602715,4.208333333333333,-0.31
602716,4.211111111111111,-0.305
602717,4.213888888888889,-0.305
602718,4.216666666666667,-0.305
602719,4.219444444444444,-0.305
602720,4.222222222222222,-0.285
602721,4.225,-0.255
602722,4.227777777777778,-0.26
602723,4.230555555555555,-0.25
602724,4.233333333333333,-0.245
602725,4.236111111111111,-0.26
602726,4.238888888888889,-0.27
602727,4.241666666666666,-0.265
602728,4.2444444444444445,-0.245
602729,4.247222222222222,-0.255
602730,4.25,-0.26
602731,4.252777777777778,-0.255
602732,4.2555555555555555,-0.265
602733,4.258333333333334,-0.25
602734,4.261111111111111,-0.245
602735,4.263888888888889,-0.245
602736,4.266666666666667,-0.245
602737,4.269444444444445,-0.245
602738,4.272222222222222,-0.25
602739,4.275,-0.255
602740,4.277777777777778,-0.24
602741,4.280555555555556,-0.24
602742,4.283333333333333,-0.245
602743,4.286111111111111,-0.24
602744,4.288888888888889,-0.24
602745,4.291666666666667,-0.235
602746,4.294444444444444,-0.21
602747,4.2972222222222225,-0.195
602748,4.3,-0.19
602749,4.302777777777778,-0.175
602750,4.305555555555555,-0.175
602751,4.308333333333334,-0.18
602752,4.311111111111111,-0.18
602753,4.313888888888889,-0.18
602754,4.316666666666666,-0.18
602755,4.319444444444445,-0.185
602756,4.322222222222222,-0.185
602757,4.325,-0.18
602758,4.3277777777777775,-0.175
602759,4.330555555555556,-0.18
602760,4.333333333333333,-0.19
602761,4.336111111111111,-0.19
602762,4.338888888888889,-0.215
602763,4.341666666666667,-0.23
602764,4.344444444444444,-0.225
602765,4.347222222222222,-0.245
602766,4.35,-0.23
602767,4.352777777777778,-0.23
602768,4.355555555555555,-0.23
602769,4.358333333333333,-0.215
602770,4.361111111111111,-0.21
602771,4.363888888888889,-0.21
602772,4.366666666666666,-0.21
602773,4.3694444444444445,-0.22
602774,4.372222222222222,-0.22
602775,4.375,-0.215
602776,4.377777777777778,-0.215
602777,4.3805555555555555,-0.215
602778,4.383333333333334,-0.225
602779,4.386111111111111,-0.22
602780,4.388888888888889,-0.215
602781,4.391666666666667,-0.205
602782,4.394444444444445,-0.195
602783,4.397222222222222,-0.2
602784,4.4,-0.195
602785,4.402777777777778,-0.205
602786,4.405555555555556,-0.195
602787,4.408333333333333,-0.19
602788,4.411111111111111,-0.195
602789,4.413888888888889,-0.205
602790,4.416666666666667,-0.2
602791,4.419444444444444,-0.2
602792,4.4222222222222225,-0.185
602793,4.425,-0.19
602794,4.427777777777778,-0.19
602795,4.430555555555555,-0.215
602796,4.433333333333334,-0.2
602797,4.436111111111111,-0.21
602798,4.438888888888889,-0.205
602799,4.441666666666666,-0.2
602800,4.444444444444445,-0.2
602801,4.447222222222222,-0.19
602802,4.45,-0.195
602803,4.4527777777777775,-0.205
602804,4.455555555555556,-0.19
602805,4.458333333333333,-0.18
602806,4.461111111111111,-0.175
602807,4.463888888888889,-0.18
602808,4.466666666666667,-0.17
602809,4.469444444444444,-0.19
602810,4.472222222222222,-0.18
602811,4.475,-0.19
602812,4.477777777777778,-0.2
602813,4.480555555555555,-0.21
602814,4.483333333333333,-0.195
602815,4.486111111111111,-0.2
602816,4.488888888888889,-0.21
602817,4.491666666666666,-0.195
602818,4.4944444444444445,-0.21
602819,4.497222222222222,-0.205
602820,4.5,-0.195
602821,4.502777777777778,-0.195
602822,4.5055555555555555,-0.195
602823,4.508333333333334,-0.2
602824,4.511111111111111,-0.2
602825,4.513888888888889,-0.205
602826,4.516666666666667,-0.21
602827,4.519444444444445,-0.21
602828,4.522222222222222,-0.2
602829,4.525,-0.19
602830,4.527777777777778,-0.17
602831,4.530555555555556,-0.16
602832,4.533333333333333,-0.16
602833,4.536111111111111,-0.15
602834,4.538888888888889,-0.125
602835,4.541666666666667,-0.13
602836,4.544444444444444,-0.125
602837,4.5472222222222225,-0.13
602838,4.55,-0.115
602839,4.552777777777778,-0.1
602840,4.555555555555555,-0.08
602841,4.558333333333334,-0.055
602842,4.561111111111111,-0.03
602843,4.563888888888889,-0.015
602844,4.566666666666666,0.0
602845,4.569444444444445,-0.01
602846,4.572222222222222,-0.02
602847,4.575,-0.03
602848,4.5777777777777775,-0.04
602849,4.580555555555556,-0.05
602850,4.583333333333333,-0.045
602851,4.586111111111111,-0.04
602852,4.588888888888889,-0.03
602853,4.591666666666667,-0.065
602854,4.594444444444444,-0.075
602855,4.597222222222222,-0.095
602856,4.6,-0.115
602857,4.602777777777778,-0.135
602858,4.605555555555555,-0.14
602859,4.608333333333333,-0.185
602860,4.611111111111111,-0.195
602861,4.613888888888889,-0.205
602862,4.616666666666666,-0.225
602863,4.6194444444444445,-0.225
602864,4.622222222222222,-0.225
602865,4.625,-0.235
602866,4.627777777777778,-0.225
602867,4.6305555555555555,-0.24
602868,4.633333333333334,-0.23
602869,4.636111111111111,-0.235
602870,4.638888888888889,-0.24
602871,4.641666666666667,-0.245
602872,4.644444444444445,-0.245
602873,4.647222222222222,-0.265
602874,4.65,-0.265
602875,4.652777777777778,-0.26
602876,4.655555555555556,-0.26
602877,4.658333333333333,-0.27
602878,4.661111111111111,-0.28
602879,4.663888888888889,-0.28
602880,4.666666666666667,-0.28
602881,4.669444444444444,-0.275
602882,4.6722222222222225,-0.245
602883,4.675,-0.19
602884,4.677777777777778,-0.08
602885,4.680555555555555,0.09
602886,4.683333333333334,0.305
602887,4.686111111111111,0.57
602888,4.688888888888889,0.87
602889,4.691666666666666,1.155
602890,4.694444444444445,1.41
602891,4.697222222222222,1.58
602892,4.7,1.615
602893,4.7027777777777775,1.485
602894,4.705555555555556,1.235
602895,4.708333333333333,0.895
602896,4.711111111111111,0.545
602897,4.713888888888889,0.235
602898,4.716666666666667,0.005
602899,4.719444444444444,-0.135
602900,4.722222222222222,-0.225
602901,4.725,-0.255
602902,4.727777777777778,-0.25
602903,4.730555555555555,-0.23
602904,4.733333333333333,-0.205
602905,4.736111111111111,-0.22
602906,4.738888888888889,-0.225
602907,4.741666666666666,-0.26
602908,4.7444444444444445,-0.3
602909,4.747222222222222,-0.335
602910,4.75,-0.345
602911,4.752777777777778,-0.36
602912,4.7555555555555555,-0.36
602913,4.758333333333334,-0.345
602914,4.761111111111111,-0.345
602915,4.763888888888889,-0.335
602916,4.766666666666667,-0.34
602917,4.769444444444445,-0.34
602918,4.772222222222222,-0.335
602919,4.775,-0.34
602920,4.777777777777778,-0.345
602921,4.780555555555556,-0.35
602922,4.783333333333333,-0.35
602923,4.786111111111111,-0.35
602924,4.788888888888889,-0.335
602925,4.791666666666667,-0.325
602926,4.794444444444444,-0.33
602927,4.7972222222222225,-0.335
602928,4.8,-0.33
602929,4.802777777777778,-0.335
602930,4.805555555555555,-0.34
602931,4.808333333333334,-0.335
602932,4.811111111111111,-0.34
602933,4.813888888888889,-0.35
602934,4.816666666666666,-0.36
602935,4.819444444444445,-0.36
602936,4.822222222222222,-0.365
602937,4.825,-0.335
602938,4.8277777777777775,-0.325
602939,4.830555555555556,-0.32
602940,4.833333333333333,-0.315
602941,4.836111111111111,-0.32
602942,4.838888888888889,-0.32
602943,4.841666666666667,-0.315
602944,4.844444444444444,-0.325
602945,4.847222222222222,-0.335
602946,4.85,-0.335
602947,4.852777777777778,-0.33
602948,4.855555555555555,-0.345
602949,4.858333333333333,-0.325
602950,4.861111111111111,-0.32
602951,4.863888888888889,-0.305
602952,4.866666666666666,-0.295
602953,4.8694444444444445,-0.285
602954,4.872222222222222,-0.29
602955,4.875,-0.29
602956,4.877777777777778,-0.3
602957,4.8805555555555555,-0.31
602958,4.883333333333334,-0.31
602959,4.886111111111111,-0.3
602960,4.888888888888889,-0.295
602961,4.891666666666667,-0.28
602962,4.894444444444445,-0.25
602963,4.897222222222222,-0.25
602964,4.9,-0.235
602965,4.902777777777778,-0.24
602966,4.905555555555556,-0.235
602967,4.908333333333333,-0.23
602968,4.911111111111111,-0.245
602969,4.913888888888889,-0.25
602970,4.916666666666667,-0.25
602971,4.919444444444444,-0.26
602972,4.9222222222222225,-0.26
602973,4.925,-0.24
602974,4.927777777777778,-0.235
602975,4.930555555555555,-0.22
602976,4.933333333333334,-0.215
602977,4.936111111111111,-0.225
602978,4.938888888888889,-0.235
602979,4.941666666666666,-0.225
602980,4.944444444444445,-0.23
602981,4.947222222222222,-0.235
602982,4.95,-0.245
602983,4.9527777777777775,-0.255
602984,4.955555555555556,-0.245
602985,4.958333333333333,-0.225
602986,4.961111111111111,-0.22
602987,4.963888888888889,-0.205
602988,4.966666666666667,-0.205
602989,4.969444444444444,-0.185
602990,4.972222222222222,-0.19
602991,4.975,-0.17
602992,4.977777777777778,-0.17
602993,4.980555555555555,-0.165
602994,4.983333333333333,-0.185
602995,4.986111111111111,-0.185
602996,4.988888888888889,-0.17
602997,4.991666666666666,-0.175
602998,4.9944444444444445,-0.15
602999,4.997222222222222,-0.135
603000,5.0,-0.125
603001,5.002777777777778,-0.135
603002,5.0055555555555555,-0.14
603003,5.008333333333334,-0.14
603004,5.011111111111111,-0.155
603005,5.013888888888889,-0.17
603006,5.016666666666667,-0.175
603007,5.019444444444445,-0.185
603008,5.022222222222222,-0.2
603009,5.025,-0.185
603010,5.027777777777778,-0.19
603011,5.030555555555556,-0.175
603012,5.033333333333333,-0.17
603013,5.036111111111111,-0.165
603014,5.038888888888889,-0.175
603015,5.041666666666667,-0.175
603016,5.044444444444444,-0.18
603017,5.0472222222222225,-0.18
603018,5.05,-0.19
603019,5.052777777777778,-0.205
603020,5.055555555555555,-0.215
603021,5.058333333333334,-0.205
603022,5.061111111111111,-0.18
603023,5.063888888888889,-0.18
603024,5.066666666666666,-0.165
603025,5.069444444444445,-0.155
603026,5.072222222222222,-0.155
603027,5.075,-0.155
603028,5.0777777777777775,-0.165
603029,5.080555555555556,-0.185
603030,5.083333333333333,-0.18
603031,5.086111111111111,-0.205
603032,5.088888888888889,-0.215
603033,5.091666666666667,-0.2
603034,5.094444444444444,-0.19
603035,5.097222222222222,-0.18
603036,5.1,-0.15
603037,5.102777777777778,-0.16
603038,5.105555555555555,-0.165
603039,5.108333333333333,-0.17
603040,5.111111111111111,-0.17
603041,5.113888888888889,-0.18
603042,5.116666666666666,-0.195
603043,5.1194444444444445,-0.2
603044,5.122222222222222,-0.2
603045,5.125,-0.185
603046,5.127777777777778,-0.18
603047,5.1305555555555555,-0.165
603048,5.133333333333334,-0.16
603049,5.136111111111111,-0.16
603050,5.138888888888889,-0.17
603051,5.141666666666667,-0.165
603052,5.144444444444445,-0.175
603053,5.147222222222222,-0.185
603054,5.15,-0.19
603055,5.152777777777778,-0.195
603056,5.155555555555556,-0.205
603057,5.158333333333333,-0.205
603058,5.161111111111111,-0.205
603059,5.163888888888889,-0.18
603060,5.166666666666667,-0.175
603061,5.169444444444444,-0.175
603062,5.1722222222222225,-0.185
603063,5.175,-0.18
603064,5.177777777777778,-0.19
603065,5.180555555555555,-0.2
603066,5.183333333333334,-0.21
603067,5.186111111111111,-0.22
603068,5.188888888888889,-0.225
603069,5.191666666666666,-0.225
603070,5.194444444444445,-0.2
603071,5.197222222222222,-0.195
603072,5.2,-0.17
603073,5.2027777777777775,-0.175
603074,5.205555555555556,-0.185
603075,5.208333333333333,-0.175
603076,5.211111111111111,-0.165
603077,5.213888888888889,-0.175
603078,5.216666666666667,-0.175
603079,5.219444444444444,-0.175
603080,5.222222222222222,-0.165
603081,5.225,-0.145
603082,5.227777777777778,-0.125
603083,5.230555555555555,-0.11
603084,5.233333333333333,-0.1
603085,5.236111111111111,-0.075
603086,5.238888888888889,-0.065
603087,5.241666666666666,-0.035
603088,5.2444444444444445,-0.025
603089,5.247222222222222,-0.03
603090,5.25,-0.03
603091,5.252777777777778,-0.035
603092,5.2555555555555555,-0.045
603093,5.258333333333334,-0.055
603094,5.261111111111111,-0.06
603095,5.263888888888889,-0.07
603096,5.266666666666667,-0.065
603097,5.269444444444445,-0.065
603098,5.272222222222222,-0.075
603099,5.275,-0.095
603100,5.277777777777778,-0.125
603101,5.280555555555556,-0.15
603102,5.283333333333333,-0.175
603103,5.286111111111111,-0.2
603104,5.288888888888889,-0.22
603105,5.291666666666667,-0.24
603106,5.294444444444444,-0.245
603107,5.2972222222222225,-0.255
603108,5.3,-0.25
603109,5.302777777777778,-0.26
603110,5.305555555555555,-0.26
603111,5.308333333333334,-0.26
603112,5.311111111111111,-0.26
603113,5.313888888888889,-0.28
603114,5.316666666666666,-0.28
603115,5.319444444444445,-0.285
603116,5.322222222222222,-0.295
603117,5.325,-0.295
603118,5.3277777777777775,-0.295
603119,5.330555555555556,-0.285
603120,5.333333333333333,-0.265
603121,5.336111111111111,-0.27
603122,5.338888888888889,-0.27
603123,5.341666666666667,-0.285
603124,5.344444444444444,-0.275
603125,5.347222222222222,-0.245
603126,5.35,-0.17
603127,5.352777777777778,-0.055
603128,5.355555555555555,0.125
603129,5.358333333333333,0.375
603130,5.361111111111111,0.655
603131,5.363888888888889,0.955
603132,5.366666666666666,1.245
603133,5.3694444444444445,1.465
603134,5.372222222222222,1.58
603135,5.375,1.545
603136,5.377777777777778,1.38
603137,5.3805555555555555,1.095
603138,5.383333333333334,0.765
603139,5.386111111111111,0.425
603140,5.388888888888889,0.14
603141,5.391666666666667,-0.065
603142,5.394444444444445,-0.195
603143,5.397222222222222,-0.255
603144,5.4,-0.27
603145,5.402777777777778,-0.26
603146,5.405555555555556,-0.25
603147,5.408333333333333,-0.215
603148,5.411111111111111,-0.24
603149,5.413888888888889,-0.255
603150,5.416666666666667,-0.28
603151,5.419444444444444,-0.315
603152,5.4222222222222225,-0.34
603153,5.425,-0.345
603154,5.427777777777778,-0.365
603155,5.430555555555555,-0.345
603156,5.433333333333334,-0.335
603157,5.436111111111111,-0.34
603158,5.438888888888889,-0.35
603159,5.441666666666666,-0.35
603160,5.444444444444445,-0.35
603161,5.447222222222222,-0.36
603162,5.45,-0.355
603163,5.4527777777777775,-0.37
603164,5.455555555555556,-0.365
603165,5.458333333333333,-0.375
603166,5.461111111111111,-0.35
603167,5.463888888888889,-0.345
603168,5.466666666666667,-0.335
603169,5.469444444444444,-0.33
603170,5.472222222222222,-0.33
603171,5.475,-0.33
603172,5.477777777777778,-0.33
603173,5.480555555555555,-0.335
603174,5.483333333333333,-0.35
603175,5.486111111111111,-0.355
603176,5.488888888888889,-0.365
603177,5.491666666666666,-0.355
603178,5.4944444444444445,-0.355
603179,5.497222222222222,-0.33
603180,5.5,-0.32
603181,5.502777777777778,-0.31
603182,5.5055555555555555,-0.305
603183,5.508333333333334,-0.315
603184,5.511111111111111,-0.32
603185,5.513888888888889,-0.32
603186,5.516666666666667,-0.34
603187,5.519444444444445,-0.33
603188,5.522222222222222,-0.33
603189,5.525,-0.325
603190,5.527777777777778,-0.315
603191,5.530555555555556,-0.29
603192,5.533333333333333,-0.29
603193,5.536111111111111,-0.28
603194,5.538888888888889,-0.28
603195,5.541666666666667,-0.27
603196,5.544444444444444,-0.28
603197,5.5472222222222225,-0.29
603198,5.55,-0.295
603199,5.552777777777778,-0.295
603200,5.555555555555555,-0.305
603201,5.558333333333334,-0.285
603202,5.561111111111111,-0.28
603203,5.563888888888889,-0.255
603204,5.566666666666666,-0.245
603205,5.569444444444445,-0.24
603206,5.572222222222222,-0.24
603207,5.575,-0.23
603208,5.5777777777777775,-0.225
603209,5.580555555555556,-0.24
603210,5.583333333333333,-0.25
603211,5.586111111111111,-0.25
603212,5.588888888888889,-0.245
603213,5.591666666666667,-0.235
603214,5.594444444444444,-0.23
603215,5.597222222222222,-0.22
603216,5.6,-0.23
603217,5.602777777777778,-0.22
603218,5.605555555555555,-0.215
603219,5.608333333333333,-0.23
603220,5.611111111111111,-0.235
603221,5.613888888888889,-0.245
603222,5.616666666666666,-0.25
603223,5.6194444444444445,-0.245
603224,5.622222222222222,-0.25
603225,5.625,-0.23
603226,5.627777777777778,-0.215
603227,5.6305555555555555,-0.205
603228,5.633333333333334,-0.18
603229,5.636111111111111,-0.16
603230,5.638888888888889,-0.145
603231,5.641666666666667,-0.14
603232,5.644444444444445,-0.15
603233,5.647222222222222,-0.155
603234,5.65,-0.16
603235,5.652777777777778,-0.16
603236,5.655555555555556,-0.155
603237,5.658333333333333,-0.16
603238,5.661111111111111,-0.16
603239,5.663888888888889,-0.17
603240,5.666666666666667,-0.165
603241,5.669444444444444,-0.175
603242,5.6722222222222225,-0.19
603243,5.675,-0.18
603244,5.677777777777778,-0.185
603245,5.680555555555555,-0.195
603246,5.683333333333334,-0.2
603247,5.686111111111111,-0.195
603248,5.688888888888889,-0.2
603249,5.691666666666666,-0.19
603250,5.694444444444445,-0.195
603251,5.697222222222222,-0.2
603252,5.7,-0.19
603253,5.7027777777777775,-0.18
603254,5.705555555555556,-0.18
603255,5.708333333333333,-0.17
603256,5.711111111111111,-0.18
603257,5.713888888888889,-0.185
603258,5.716666666666667,-0.2
603259,5.719444444444444,-0.22
603260,5.722222222222222,-0.22
603261,5.725,-0.22
603262,5.727777777777778,-0.215
603263,5.730555555555555,-0.195
603264,5.733333333333333,-0.185
603265,5.736111111111111,-0.175
603266,5.738888888888889,-0.16
603267,5.741666666666666,-0.17
603268,5.7444444444444445,-0.19
603269,5.747222222222222,-0.2
603270,5.75,-0.21
603271,5.752777777777778,-0.205
603272,5.7555555555555555,-0.195
603273,5.758333333333334,-0.21
603274,5.761111111111111,-0.2
603275,5.763888888888889,-0.195
603276,5.766666666666667,-0.18
603277,5.769444444444445,-0.175
603278,5.772222222222222,-0.175
603279,5.775,-0.17
603280,5.777777777777778,-0.185
603281,5.780555555555556,-0.185
603282,5.783333333333333,-0.185
603283,5.786111111111111,-0.195
603284,5.788888888888889,-0.19
603285,5.791666666666667,-0.19
603286,5.794444444444444,-0.185
603287,5.7972222222222225,-0.2
603288,5.8,-0.185
603289,5.802777777777778,-0.18
603290,5.805555555555555,-0.18
603291,5.808333333333334,-0.165
603292,5.811111111111111,-0.17
603293,5.813888888888889,-0.17
603294,5.816666666666666,-0.185
603295,5.819444444444445,-0.2
603296,5.822222222222222,-0.205
603297,5.825,-0.215
603298,5.8277777777777775,-0.2
603299,5.830555555555556,-0.205
603300,5.833333333333333,-0.2
603301,5.836111111111111,-0.2
603302,5.838888888888889,-0.195
603303,5.841666666666667,-0.195
603304,5.844444444444444,-0.195
603305,5.847222222222222,-0.19
603306,5.85,-0.2
603307,5.852777777777778,-0.21
603308,5.855555555555555,-0.205
603309,5.858333333333333,-0.205
603310,5.861111111111111,-0.2
603311,5.863888888888889,-0.19
603312,5.866666666666666,-0.185
603313,5.8694444444444445,-0.165
603314,5.872222222222222,-0.155
603315,5.875,-0.135
603316,5.877777777777778,-0.13
603317,5.8805555555555555,-0.145
603318,5.883333333333334,-0.155
603319,5.886111111111111,-0.145
603320,5.888888888888889,-0.145
603321,5.891666666666667,-0.125
603322,5.894444444444445,-0.11
603323,5.897222222222222,-0.095
603324,5.9,-0.065
603325,5.902777777777778,-0.045
603326,5.905555555555556,-0.015
603327,5.908333333333333,0.0
603328,5.911111111111111,-0.015
603329,5.913888888888889,-0.025
603330,5.916666666666667,-0.055
603331,5.919444444444444,-0.06
603332,5.9222222222222225,-0.065
603333,5.925,-0.04
603334,5.927777777777778,-0.04
603335,5.930555555555555,-0.05
603336,5.933333333333334,-0.055
603337,5.936111111111111,-0.075
603338,5.938888888888889,-0.11
603339,5.941666666666666,-0.12
603340,5.944444444444445,-0.15
603341,5.947222222222222,-0.18
603342,5.95,-0.2
603343,5.9527777777777775,-0.225
603344,5.955555555555556,-0.235
603345,5.958333333333333,-0.255
603346,5.961111111111111,-0.26
603347,5.963888888888889,-0.275
603348,5.966666666666667,-0.245
603349,5.969444444444444,-0.25
603350,5.972222222222222,-0.25
603351,5.975,-0.245
603352,5.977777777777778,-0.25
603353,5.980555555555555,-0.265
603354,5.983333333333333,-0.28
603355,5.986111111111111,-0.275
603356,5.988888888888889,-0.275
603357,5.991666666666666,-0.26
603358,5.9944444444444445,-0.275
603359,5.997222222222222,-0.275
603360,6.0,-0.28
603361,6.002777777777778,-0.285
603362,6.0055555555555555,-0.285
603363,6.008333333333334,-0.29
603364,6.011111111111111,-0.28
603365,6.013888888888889,-0.26
603366,6.016666666666667,-0.21
603367,6.019444444444445,-0.11
603368,6.022222222222222,0.025
603369,6.025,0.225
603370,6.027777777777778,0.475
603371,6.030555555555556,0.75
603372,6.033333333333333,1.04
603373,6.036111111111111,1.31
603374,6.038888888888889,1.51
603375,6.041666666666667,1.615
603376,6.044444444444444,1.58
603377,6.0472222222222225,1.41
603378,6.05,1.135
603379,6.052777777777778,0.805
603380,6.055555555555555,0.47
603381,6.058333333333334,0.19
603382,6.061111111111111,-0.03
603383,6.063888888888889,-0.175
603384,6.066666666666666,-0.235
603385,6.069444444444445,-0.27
603386,6.072222222222222,-0.275
603387,6.075,-0.245
603388,6.0777777777777775,-0.23
603389,6.080555555555556,-0.225
603390,6.083333333333333,-0.25
603391,6.086111111111111,-0.26
603392,6.088888888888889,-0.29
603393,6.091666666666667,-0.31
603394,6.094444444444444,-0.32
603395,6.097222222222222,-0.32
603396,6.1,-0.325
603397,6.102777777777778,-0.33
603398,6.105555555555555,-0.35
603399,6.108333333333333,-0.34
603400,6.111111111111111,-0.34
603401,6.113888888888889,-0.33
603402,6.116666666666666,-0.34
603403,6.1194444444444445,-0.355
603404,6.122222222222222,-0.375
603405,6.125,-0.38
603406,6.127777777777778,-0.355
603407,6.1305555555555555,-0.355
603408,6.133333333333334,-0.35
603409,6.136111111111111,-0.345
603410,6.138888888888889,-0.345
603411,6.141666666666667,-0.335
603412,6.144444444444445,-0.345
603413,6.147222222222222,-0.35
603414,6.15,-0.355
603415,6.152777777777778,-0.355
603416,6.155555555555556,-0.34
603417,6.158333333333333,-0.335
603418,6.161111111111111,-0.335
603419,6.163888888888889,-0.315
603420,6.166666666666667,-0.31
603421,6.169444444444444,-0.305
603422,6.1722222222222225,-0.315
603423,6.175,-0.325
603424,6.177777777777778,-0.32
603425,6.180555555555555,-0.315
603426,6.183333333333334,-0.33
603427,6.186111111111111,-0.335
603428,6.188888888888889,-0.345
603429,6.191666666666666,-0.335
603430,6.194444444444445,-0.315
603431,6.197222222222222,-0.305
603432,6.2,-0.295
603433,6.2027777777777775,-0.29
603434,6.205555555555556,-0.295
603435,6.208333333333333,-0.295
603436,6.211111111111111,-0.3
603437,6.213888888888889,-0.285
603438,6.216666666666667,-0.29
603439,6.219444444444444,-0.285
603440,6.222222222222222,-0.29
603441,6.225,-0.28
603442,6.227777777777778,-0.275
603443,6.230555555555555,-0.265
603444,6.233333333333333,-0.26
603445,6.236111111111111,-0.255
603446,6.238888888888889,-0.27
603447,6.241666666666666,-0.26
603448,6.2444444444444445,-0.26
603449,6.247222222222222,-0.255
603450,6.25,-0.235
603451,6.252777777777778,-0.24
603452,6.2555555555555555,-0.23
603453,6.258333333333334,-0.215
603454,6.261111111111111,-0.22
603455,6.263888888888889,-0.22
603456,6.266666666666667,-0.215
603457,6.269444444444445,-0.22
603458,6.272222222222222,-0.235
603459,6.275,-0.235
603460,6.277777777777778,-0.24
603461,6.280555555555556,-0.225
603462,6.283333333333333,-0.24
603463,6.286111111111111,-0.24
603464,6.288888888888889,-0.24
603465,6.291666666666667,-0.225
603466,6.294444444444444,-0.215
603467,6.2972222222222225,-0.215
603468,6.3,-0.215
603469,6.302777777777778,-0.215
603470,6.305555555555555,-0.235
603471,6.308333333333334,-0.235
603472,6.311111111111111,-0.215
603473,6.313888888888889,-0.215
603474,6.316666666666666,-0.2
603475,6.319444444444445,-0.18
603476,6.322222222222222,-0.185
603477,6.325,-0.165
603478,6.3277777777777775,-0.145
603479,6.330555555555556,-0.125
603480,6.333333333333333,-0.12
603481,6.336111111111111,-0.12
603482,6.338888888888889,-0.14
603483,6.341666666666667,-0.15
603484,6.344444444444444,-0.16
603485,6.347222222222222,-0.16
603486,6.35,-0.165
603487,6.352777777777778,-0.17
603488,6.355555555555555,-0.185
603489,6.358333333333333,-0.18
603490,6.361111111111111,-0.18
603491,6.363888888888889,-0.175
603492,6.366666666666666,-0.16
603493,6.3694444444444445,-0.16
603494,6.372222222222222,-0.19
603495,6.375,-0.19
603496,6.377777777777778,-0.19
603497,6.3805555555555555,-0.2
603498,6.383333333333334,-0.205
603499,6.386111111111111,-0.195
603500,6.388888888888889,-0.2
603501,6.391666666666667,-0.18
603502,6.394444444444445,-0.175
603503,6.397222222222222,-0.165
603504,6.4,-0.17
603505,6.402777777777778,-0.165
603506,6.405555555555556,-0.185
603507,6.408333333333333,-0.195
603508,6.411111111111111,-0.195
603509,6.413888888888889,-0.2
603510,6.416666666666667,-0.195
603511,6.419444444444444,-0.195
603512,6.4222222222222225,-0.19
603513,6.425,-0.18
603514,6.427777777777778,-0.16
603515,6.430555555555555,-0.16
603516,6.433333333333334,-0.15
603517,6.436111111111111,-0.145
603518,6.438888888888889,-0.145
603519,6.441666666666666,-0.15
603520,6.444444444444445,-0.16
603521,6.447222222222222,-0.16
603522,6.45,-0.18
603523,6.4527777777777775,-0.175
603524,6.455555555555556,-0.17
603525,6.458333333333333,-0.17
603526,6.461111111111111,-0.165
603527,6.463888888888889,-0.15
603528,6.466666666666667,-0.145
603529,6.469444444444444,-0.125
603530,6.472222222222222,-0.13
603531,6.475,-0.13
603532,6.477777777777778,-0.135
603533,6.480555555555555,-0.15
603534,6.483333333333333,-0.165
603535,6.486111111111111,-0.155
603536,6.488888888888889,-0.15
603537,6.491666666666666,-0.15
603538,6.4944444444444445,-0.145
603539,6.497222222222222,-0.13
603540,6.5,-0.13
603541,6.502777777777778,-0.125
603542,6.5055555555555555,-0.14
603543,6.508333333333334,-0.14
603544,6.511111111111111,-0.155
603545,6.513888888888889,-0.155
603546,6.516666666666667,-0.16
603547,6.519444444444445,-0.16
603548,6.522222222222222,-0.155
603549,6.525,-0.155
603550,6.527777777777778,-0.155
603551,6.530555555555556,-0.15
603552,6.533333333333333,-0.14
603553,6.536111111111111,-0.13
603554,6.538888888888889,-0.13
603555,6.541666666666667,-0.145
603556,6.544444444444444,-0.16
603557,6.5472222222222225,-0.165
603558,6.55,-0.18
603559,6.552777777777778,-0.185
603560,6.555555555555555,-0.185
603561,6.558333333333334,-0.17
603562,6.561111111111111,-0.15
603563,6.563888888888889,-0.14
603564,6.566666666666666,-0.125
603565,6.569444444444445,-0.1
603566,6.572222222222222,-0.08
603567,6.575,-0.07
603568,6.5777777777777775,-0.07
603569,6.580555555555556,-0.08
603570,6.583333333333333,-0.09
603571,6.586111111111111,-0.085
603572,6.588888888888889,-0.085
603573,6.591666666666667,-0.05
603574,6.594444444444444,-0.025
603575,6.597222222222222,0.0
603576,6.6,0.025
603577,6.602777777777778,0.05
603578,6.605555555555555,0.045
603579,6.608333333333333,0.04
603580,6.611111111111111,0.025
603581,6.613888888888889,0.01
603582,6.616666666666666,-0.005
603583,6.6194444444444445,0.0
603584,6.622222222222222,0.0
603585,6.625,0.005
603586,6.627777777777778,-0.01
603587,6.6305555555555555,-0.02
603588,6.633333333333334,-0.035
603589,6.636111111111111,-0.055
603590,6.638888888888889,-0.075
603591,6.641666666666667,-0.085
603592,6.644444444444445,-0.115
603593,6.647222222222222,-0.145
603594,6.65,-0.17
603595,6.652777777777778,-0.2
603596,6.655555555555556,-0.22
603597,6.658333333333333,-0.225
603598,6.661111111111111,-0.2
603599,6.663888888888889,-0.22
603600,6.666666666666667,-0.21
603601,6.669444444444444,-0.21
603602,6.6722222222222225,-0.22
603603,6.675,-0.225
603604,6.677777777777778,-0.225
603605,6.680555555555555,-0.24
603606,6.683333333333334,-0.25
603607,6.686111111111111,-0.26
603608,6.688888888888889,-0.26
603609,6.691666666666666,-0.245
603610,6.694444444444445,-0.225
603611,6.697222222222222,-0.225
603612,6.7,-0.225
603613,6.7027777777777775,-0.225
603614,6.705555555555556,-0.245
603615,6.708333333333333,-0.24
603616,6.711111111111111,-0.22
603617,6.713888888888889,-0.175
603618,6.716666666666667,-0.085
603619,6.719444444444444,0.05
603620,6.722222222222222,0.245
603621,6.725,0.505
603622,6.727777777777778,0.805
603623,6.730555555555555,1.115
603624,6.733333333333333,1.405
603625,6.736111111111111,1.63
603626,6.738888888888889,1.725
603627,6.741666666666666,1.69
603628,6.7444444444444445,1.515
603629,6.747222222222222,1.235
603630,6.75,0.885
603631,6.752777777777778,0.535
603632,6.7555555555555555,0.235
603633,6.758333333333334,0.01
603634,6.761111111111111,-0.13
603635,6.763888888888889,-0.21
603636,6.766666666666667,-0.24
603637,6.769444444444445,-0.235
603638,6.772222222222222,-0.225
603639,6.775,-0.2
603640,6.777777777777778,-0.19
603641,6.780555555555556,-0.205
603642,6.783333333333333,-0.22
603643,6.786111111111111,-0.255
603644,6.788888888888889,-0.27
603645,6.791666666666667,-0.285
603646,6.794444444444444,-0.29
603647,6.7972222222222225,-0.3
603648,6.8,-0.295
603649,6.802777777777778,-0.295
603650,6.805555555555555,-0.305
603651,6.808333333333334,-0.3
603652,6.811111111111111,-0.3
603653,6.813888888888889,-0.3
603654,6.816666666666666,-0.3
603655,6.819444444444445,-0.305
603656,6.822222222222222,-0.305
603657,6.825,-0.31
603658,6.8277777777777775,-0.295
603659,6.830555555555556,-0.295
603660,6.833333333333333,-0.29
603661,6.836111111111111,-0.295
603662,6.838888888888889,-0.3
603663,6.841666666666667,-0.295
603664,6.844444444444444,-0.31
603665,6.847222222222222,-0.305
603666,6.85,-0.31
603667,6.852777777777778,-0.305
603668,6.855555555555555,-0.31
603669,6.858333333333333,-0.3
603670,6.861111111111111,-0.295
603671,6.863888888888889,-0.285
603672,6.866666666666666,-0.275
603673,6.8694444444444445,-0.265
603674,6.872222222222222,-0.28
603675,6.875,-0.275
603676,6.877777777777778,-0.28
603677,6.8805555555555555,-0.28
603678,6.883333333333334,-0.29
603679,6.886111111111111,-0.27
603680,6.888888888888889,-0.275
603681,6.891666666666667,-0.28
603682,6.894444444444445,-0.27
603683,6.897222222222222,-0.255
603684,6.9,-0.26
603685,6.902777777777778,-0.25
603686,6.905555555555556,-0.255
603687,6.908333333333333,-0.25
603688,6.911111111111111,-0.25
603689,6.913888888888889,-0.235
603690,6.916666666666667,-0.235
603691,6.919444444444444,-0.24
603692,6.9222222222222225,-0.245
603693,6.925,-0.24
603694,6.927777777777778,-0.23
603695,6.930555555555555,-0.235
603696,6.933333333333334,-0.21
603697,6.936111111111111,-0.215
603698,6.938888888888889,-0.205
603699,6.941666666666666,-0.2
603700,6.944444444444445,-0.2
603701,6.947222222222222,-0.185
603702,6.95,-0.2
603703,6.9527777777777775,-0.2
603704,6.955555555555556,-0.2
603705,6.958333333333333,-0.205
603706,6.961111111111111,-0.195
603707,6.963888888888889,-0.19
603708,6.966666666666667,-0.19
603709,6.969444444444444,-0.185
603710,6.972222222222222,-0.175
603711,6.975,-0.165
603712,6.977777777777778,-0.165
603713,6.980555555555555,-0.175
603714,6.983333333333333,-0.18
603715,6.986111111111111,-0.19
603716,6.988888888888889,-0.195
603717,6.991666666666666,-0.2
603718,6.9944444444444445,-0.19
603719,6.997222222222222,-0.18
603720,7.0,-0.17
603721,7.002777777777778,-0.165
603722,7.0055555555555555,-0.175
603723,7.008333333333334,-0.155
603724,7.011111111111111,-0.135
603725,7.013888888888889,-0.135
603726,7.016666666666667,-0.125
603727,7.019444444444445,-0.115
603728,7.022222222222222,-0.115
603729,7.025,-0.11
603730,7.027777777777778,-0.105
603731,7.030555555555556,-0.11
603732,7.033333333333333,-0.12
603733,7.036111111111111,-0.115
603734,7.038888888888889,-0.125
603735,7.041666666666667,-0.12
603736,7.044444444444444,-0.11
603737,7.0472222222222225,-0.125
603738,7.05,-0.145
603739,7.052777777777778,-0.16
603740,7.055555555555555,-0.185
603741,7.058333333333334,-0.18
603742,7.061111111111111,-0.18
603743,7.063888888888889,-0.175
603744,7.066666666666666,-0.15
603745,7.069444444444445,-0.15
603746,7.072222222222222,-0.155
603747,7.075,-0.15
603748,7.0777777777777775,-0.155
603749,7.080555555555556,-0.155
603750,7.083333333333333,-0.165
603751,7.086111111111111,-0.175
603752,7.088888888888889,-0.175
603753,7.091666666666667,-0.165
603754,7.094444444444444,-0.165
603755,7.097222222222222,-0.145
603756,7.1,-0.165
603757,7.102777777777778,-0.165
603758,7.105555555555555,-0.165
603759,7.108333333333333,-0.15
603760,7.111111111111111,-0.155
603761,7.113888888888889,-0.145
603762,7.116666666666666,-0.16
603763,7.1194444444444445,-0.165
603764,7.122222222222222,-0.16
603765,7.125,-0.155
603766,7.127777777777778,-0.155
603767,7.1305555555555555,-0.15
603768,7.133333333333334,-0.145
603769,7.136111111111111,-0.135
603770,7.138888888888889,-0.135
603771,7.141666666666667,-0.13
603772,7.144444444444445,-0.14
603773,7.147222222222222,-0.14
603774,7.15,-0.14
603775,7.152777777777778,-0.15
603776,7.155555555555556,-0.155
603777,7.158333333333333,-0.145
603778,7.161111111111111,-0.145
603779,7.163888888888889,-0.14
603780,7.166666666666667,-0.14
603781,7.169444444444444,-0.135
603782,7.1722222222222225,-0.125
603783,7.175,-0.12
603784,7.177777777777778,-0.12
603785,7.180555555555555,-0.13
603786,7.183333333333334,-0.145
603787,7.186111111111111,-0.15
603788,7.188888888888889,-0.14
603789,7.191666666666666,-0.135
603790,7.194444444444445,-0.155
603791,7.197222222222222,-0.15
603792,7.2,-0.145
603793,7.2027777777777775,-0.135
603794,7.205555555555556,-0.13
603795,7.208333333333333,-0.13
603796,7.211111111111111,-0.135
603797,7.213888888888889,-0.15
603798,7.216666666666667,-0.15
603799,7.219444444444444,-0.155
603800,7.222222222222222,-0.155
603801,7.225,-0.155
603802,7.227777777777778,-0.15
603803,7.230555555555555,-0.155
603804,7.233333333333333,-0.145
603805,7.236111111111111,-0.145
603806,7.238888888888889,-0.13
603807,7.241666666666666,-0.115
603808,7.2444444444444445,-0.12
603809,7.247222222222222,-0.125
603810,7.25,-0.11
603811,7.252777777777778,-0.105
603812,7.2555555555555555,-0.09
603813,7.258333333333334,-0.095
603814,7.261111111111111,-0.08
603815,7.263888888888889,-0.06
603816,7.266666666666667,-0.04
603817,7.269444444444445,-0.02
603818,7.272222222222222,0.005
603819,7.275,0.045
603820,7.277777777777778,0.035
603821,7.280555555555556,0.035
603822,7.283333333333333,0.035
603823,7.286111111111111,0.02
603824,7.288888888888889,0.015
603825,7.291666666666667,0.01
603826,7.294444444444444,0.005
603827,7.2972222222222225,-0.005
603828,7.3,0.0
603829,7.302777777777778,-0.025
603830,7.305555555555555,-0.025
603831,7.308333333333334,-0.045
603832,7.311111111111111,-0.05
603833,7.313888888888889,-0.075
603834,7.316666666666666,-0.105
603835,7.319444444444445,-0.135
603836,7.322222222222222,-0.155
603837,7.325,-0.155
603838,7.3277777777777775,-0.16
603839,7.330555555555556,-0.175
603840,7.333333333333333,-0.19
603841,7.336111111111111,-0.18
603842,7.338888888888889,-0.185
603843,7.341666666666667,-0.19
603844,7.344444444444444,-0.2
603845,7.347222222222222,-0.21
603846,7.35,-0.21
603847,7.352777777777778,-0.23
603848,7.355555555555555,-0.215
603849,7.358333333333333,-0.225
603850,7.361111111111111,-0.225
603851,7.363888888888889,-0.21
603852,7.366666666666666,-0.215
603853,7.3694444444444445,-0.22
603854,7.372222222222222,-0.225
603855,7.375,-0.23
603856,7.377777777777778,-0.25
603857,7.3805555555555555,-0.255
603858,7.383333333333334,-0.25
603859,7.386111111111111,-0.225
603860,7.388888888888889,-0.145
603861,7.391666666666667,-0.04
603862,7.394444444444445,0.105
603863,7.397222222222222,0.285
603864,7.4,0.54
603865,7.402777777777778,0.815
603866,7.405555555555556,1.115
603867,7.408333333333333,1.395
603868,7.411111111111111,1.58
603869,7.413888888888889,1.685
603870,7.416666666666667,1.645
603871,7.419444444444444,1.475
603872,7.4222222222222225,1.205
603873,7.425,0.885
603874,7.427777777777778,0.565
603875,7.430555555555555,0.27
603876,7.433333333333334,0.05
603877,7.436111111111111,-0.1
603878,7.438888888888889,-0.185
603879,7.441666666666666,-0.205
603880,7.444444444444445,-0.215
603881,7.447222222222222,-0.2
603882,7.45,-0.19
603883,7.4527777777777775,-0.19
603884,7.455555555555556,-0.205
603885,7.458333333333333,-0.23
603886,7.461111111111111,-0.25
603887,7.463888888888889,-0.275
603888,7.466666666666667,-0.285
603889,7.469444444444444,-0.3
603890,7.472222222222222,-0.305
603891,7.475,-0.305
603892,7.477777777777778,-0.3
603893,7.480555555555555,-0.31
603894,7.483333333333333,-0.31
603895,7.486111111111111,-0.325
603896,7.488888888888889,-0.325
603897,7.491666666666666,-0.31
603898,7.4944444444444445,-0.3
603899,7.497222222222222,-0.3
603900,7.5,-0.305
603901,7.502777777777778,-0.305
603902,7.5055555555555555,-0.3
603903,7.508333333333334,-0.315
603904,7.511111111111111,-0.315
603905,7.513888888888889,-0.31
603906,7.516666666666667,-0.31
603907,7.519444444444445,-0.32
603908,7.522222222222222,-0.32
603909,7.525,-0.31
603910,7.527777777777778,-0.305
603911,7.530555555555556,-0.285
603912,7.533333333333333,-0.285
603913,7.536111111111111,-0.295
603914,7.538888888888889,-0.3
603915,7.541666666666667,-0.3
603916,7.544444444444444,-0.3
603917,7.5472222222222225,-0.31
603918,7.55,-0.305
603919,7.552777777777778,-0.305
603920,7.555555555555555,-0.3
603921,7.558333333333334,-0.295
603922,7.561111111111111,-0.29
603923,7.563888888888889,-0.265
603924,7.566666666666666,-0.27
603925,7.569444444444445,-0.26
603926,7.572222222222222,-0.265
603927,7.575,-0.27
603928,7.5777777777777775,-0.255
603929,7.580555555555556,-0.265
603930,7.583333333333333,-0.255
603931,7.586111111111111,-0.27
603932,7.588888888888889,-0.275
603933,7.591666666666667,-0.285
603934,7.594444444444444,-0.25
603935,7.597222222222222,-0.24
603936,7.6,-0.22
603937,7.602777777777778,-0.215
603938,7.605555555555555,-0.215
603939,7.608333333333333,-0.22
603940,7.611111111111111,-0.22
603941,7.613888888888889,-0.205
603942,7.616666666666666,-0.215
603943,7.6194444444444445,-0.21
603944,7.622222222222222,-0.215
603945,7.625,-0.21
603946,7.627777777777778,-0.21
603947,7.6305555555555555,-0.19
603948,7.633333333333334,-0.18
603949,7.636111111111111,-0.185
603950,7.638888888888889,-0.17
603951,7.641666666666667,-0.19
603952,7.644444444444445,-0.19
603953,7.647222222222222,-0.2
603954,7.65,-0.205
603955,7.652777777777778,-0.22
603956,7.655555555555556,-0.2
603957,7.658333333333333,-0.19
603958,7.661111111111111,-0.17
603959,7.663888888888889,-0.165
603960,7.666666666666667,-0.16
603961,7.669444444444444,-0.165
603962,7.6722222222222225,-0.18
603963,7.675,-0.175
603964,7.677777777777778,-0.175
603965,7.680555555555555,-0.17
603966,7.683333333333334,-0.18
603967,7.686111111111111,-0.18
603968,7.688888888888889,-0.17
603969,7.691666666666666,-0.155
603970,7.694444444444445,-0.13
603971,7.697222222222222,-0.115
603972,7.7,-0.105
603973,7.7027777777777775,-0.095
603974,7.705555555555556,-0.1
603975,7.708333333333333,-0.1
603976,7.711111111111111,-0.115
603977,7.713888888888889,-0.115
603978,7.716666666666667,-0.125
603979,7.719444444444444,-0.125
603980,7.722222222222222,-0.13
603981,7.725,-0.13
603982,7.727777777777778,-0.125
603983,7.730555555555555,-0.12
603984,7.733333333333333,-0.13
603985,7.736111111111111,-0.13
603986,7.738888888888889,-0.14
603987,7.741666666666666,-0.155
603988,7.7444444444444445,-0.155
603989,7.747222222222222,-0.15
603990,7.75,-0.16
603991,7.752777777777778,-0.165
603992,7.7555555555555555,-0.165
603993,7.758333333333334,-0.16
603994,7.761111111111111,-0.16
603995,7.763888888888889,-0.14
603996,7.766666666666667,-0.125
603997,7.769444444444445,-0.135
603998,7.772222222222222,-0.135
603999,7.775,-0.13
604000,7.777777777777778,-0.145
604001,7.780555555555556,-0.155
604002,7.783333333333333,-0.17
604003,7.786111111111111,-0.175
604004,7.788888888888889,-0.17
604005,7.791666666666667,-0.17
604006,7.794444444444444,-0.15
604007,7.7972222222222225,-0.14
604008,7.8,-0.13
604009,7.802777777777778,-0.14
604010,7.805555555555555,-0.14
604011,7.808333333333334,-0.145
604012,7.811111111111111,-0.14
604013,7.813888888888889,-0.145
604014,7.816666666666666,-0.145
604015,7.819444444444445,-0.165
604016,7.822222222222222,-0.165
604017,7.825,-0.155
604018,7.8277777777777775,-0.135
604019,7.830555555555556,-0.15
604020,7.833333333333333,-0.13
604021,7.836111111111111,-0.13
604022,7.838888888888889,-0.13
604023,7.841666666666667,-0.13
604024,7.844444444444444,-0.135
604025,7.847222222222222,-0.16
604026,7.85,-0.16
604027,7.852777777777778,-0.165
604028,7.855555555555555,-0.155
604029,7.858333333333333,-0.155
604030,7.861111111111111,-0.14
604031,7.863888888888889,-0.125
604032,7.866666666666666,-0.115
604033,7.8694444444444445,-0.115
604034,7.872222222222222,-0.135
604035,7.875,-0.14
604036,7.877777777777778,-0.16
604037,7.8805555555555555,-0.16
604038,7.883333333333334,-0.165
604039,7.886111111111111,-0.17
604040,7.888888888888889,-0.165
604041,7.891666666666667,-0.155
604042,7.894444444444445,-0.165
604043,7.897222222222222,-0.145
604044,7.9,-0.145
604045,7.902777777777778,-0.14
604046,7.905555555555556,-0.135
604047,7.908333333333333,-0.145
604048,7.911111111111111,-0.16
604049,7.913888888888889,-0.165
604050,7.916666666666667,-0.16
604051,7.919444444444444,-0.15
604052,7.9222222222222225,-0.13
604053,7.925,-0.115
604054,7.927777777777778,-0.105
604055,7.930555555555555,-0.09
604056,7.933333333333334,-0.08
604057,7.936111111111111,-0.065
604058,7.938888888888889,-0.06
604059,7.941666666666666,-0.05
604060,7.944444444444445,-0.04
604061,7.947222222222222,-0.015
604062,7.95,0.0
604063,7.9527777777777775,0.025
604064,7.955555555555556,0.03
604065,7.958333333333333,0.03
604066,7.961111111111111,0.03
604067,7.963888888888889,0.02
604068,7.966666666666667,0.03
604069,7.969444444444444,0.03
604070,7.972222222222222,0.015
604071,7.975,0.0
604072,7.977777777777778,-0.025
604073,7.980555555555555,-0.045
604074,7.983333333333333,-0.075
604075,7.986111111111111,-0.105
604076,7.988888888888889,-0.13
604077,7.991666666666666,-0.15
604078,7.9944444444444445,-0.15
604079,7.997222222222222,-0.165
604080,8.0,-0.175
604081,8.002777777777778,-0.185
604082,8.005555555555556,-0.2
604083,8.008333333333333,-0.215
604084,8.011111111111111,-0.205
604085,8.01388888888889,-0.21
604086,8.016666666666667,-0.21
604087,8.019444444444444,-0.215
604088,8.022222222222222,-0.215
604089,8.025,-0.225
604090,8.027777777777779,-0.215
604091,8.030555555555555,-0.205
604092,8.033333333333333,-0.22
604093,8.036111111111111,-0.22
604094,8.03888888888889,-0.23
604095,8.041666666666666,-0.245
604096,8.044444444444444,-0.245
604097,8.047222222222222,-0.245
604098,8.05,-0.21
604099,8.052777777777777,-0.14
604100,8.055555555555555,-0.03
604101,8.058333333333334,0.135
604102,8.061111111111112,0.355
604103,8.063888888888888,0.63
604104,8.066666666666666,0.92
604105,8.069444444444445,1.23
604106,8.072222222222223,1.47
604107,8.075,1.62
604108,8.077777777777778,1.625
604109,8.080555555555556,1.505
604110,8.083333333333334,1.25
604111,8.08611111111111,0.935
604112,8.088888888888889,0.59
604113,8.091666666666667,0.29
604114,8.094444444444445,0.06
604115,8.097222222222221,-0.1
604116,8.1,-0.18
604117,8.102777777777778,-0.205
604118,8.105555555555556,-0.21
604119,8.108333333333333,-0.185
604120,8.11111111111111,-0.18
604121,8.113888888888889,-0.19
604122,8.116666666666667,-0.22
604123,8.119444444444444,-0.24
604124,8.122222222222222,-0.26
604125,8.125,-0.295
604126,8.127777777777778,-0.285
604127,8.130555555555556,-0.295
604128,8.133333333333333,-0.29
604129,8.136111111111111,-0.3
604130,8.13888888888889,-0.29
604131,8.141666666666667,-0.28
604132,8.144444444444444,-0.3
604133,8.147222222222222,-0.305
604134,8.15,-0.32
604135,8.152777777777779,-0.315
604136,8.155555555555555,-0.31
604137,8.158333333333333,-0.31
604138,8.161111111111111,-0.31
604139,8.16388888888889,-0.32
604140,8.166666666666666,-0.305
604141,8.169444444444444,-0.315
604142,8.172222222222222,-0.32
604143,8.175,-0.305
604144,8.177777777777777,-0.305
604145,8.180555555555555,-0.3
604146,8.183333333333334,-0.305
604147,8.186111111111112,-0.31
604148,8.188888888888888,-0.305
604149,8.191666666666666,-0.3
604150,8.194444444444445,-0.295
604151,8.197222222222223,-0.295
604152,8.2,-0.305
604153,8.202777777777778,-0.295
604154,8.205555555555556,-0.29
604155,8.208333333333334,-0.29
604156,8.21111111111111,-0.28
604157,8.213888888888889,-0.28
604158,8.216666666666667,-0.285
604159,8.219444444444445,-0.285
604160,8.222222222222221,-0.275
604161,8.225,-0.27
604162,8.227777777777778,-0.265
604163,8.230555555555556,-0.275
604164,8.233333333333333,-0.265
604165,8.23611111111111,-0.255
604166,8.238888888888889,-0.265
604167,8.241666666666667,-0.265
604168,8.244444444444444,-0.26
604169,8.247222222222222,-0.255
604170,8.25,-0.265
604171,8.252777777777778,-0.25
604172,8.255555555555556,-0.235
604173,8.258333333333333,-0.22
604174,8.261111111111111,-0.22
604175,8.26388888888889,-0.22
604176,8.266666666666667,-0.23
604177,8.269444444444444,-0.225
604178,8.272222222222222,-0.2
604179,8.275,-0.205
604180,8.277777777777779,-0.205
604181,8.280555555555555,-0.195
604182,8.283333333333333,-0.21
604183,8.286111111111111,-0.215
604184,8.28888888888889,-0.205
604185,8.291666666666666,-0.19
604186,8.294444444444444,-0.18
604187,8.297222222222222,-0.19
604188,8.3,-0.185
604189,8.302777777777777,-0.19
604190,8.305555555555555,-0.185
604191,8.308333333333334,-0.17
604192,8.311111111111112,-0.19
604193,8.313888888888888,-0.18
604194,8.316666666666666,-0.185
604195,8.319444444444445,-0.185
604196,8.322222222222223,-0.185
604197,8.325,-0.19
604198,8.327777777777778,-0.175
604199,8.330555555555556,-0.155
604200,8.333333333333334,-0.16
604201,8.33611111111111,-0.145
604202,8.338888888888889,-0.15
604203,8.341666666666667,-0.15
604204,8.344444444444445,-0.135
604205,8.347222222222221,-0.13
604206,8.35,-0.125
604207,8.352777777777778,-0.115
604208,8.355555555555556,-0.105
604209,8.358333333333333,-0.1
604210,8.36111111111111,-0.085
604211,8.363888888888889,-0.09
604212,8.366666666666667,-0.09
604213,8.369444444444444,-0.095
604214,8.372222222222222,-0.11
604215,8.375,-0.105
604216,8.377777777777778,-0.115
604217,8.380555555555556,-0.12
604218,8.383333333333333,-0.13
604219,8.386111111111111,-0.13
604220,8.38888888888889,-0.13
604221,8.391666666666667,-0.135
604222,8.394444444444444,-0.135
604223,8.397222222222222,-0.125
604224,8.4,-0.145
604225,8.402777777777779,-0.135
604226,8.405555555555555,-0.135
604227,8.408333333333333,-0.135
604228,8.411111111111111,-0.14
604229,8.41388888888889,-0.14
604230,8.416666666666666,-0.145
604231,8.419444444444444,-0.145
604232,8.422222222222222,-0.15
604233,8.425,-0.145
604234,8.427777777777777,-0.13
604235,8.430555555555555,-0.135
604236,8.433333333333334,-0.14
604237,8.436111111111112,-0.135
604238,8.438888888888888,-0.145
604239,8.441666666666666,-0.135
604240,8.444444444444445,-0.145
604241,8.447222222222223,-0.155
604242,8.45,-0.155
604243,8.452777777777778,-0.16
604244,8.455555555555556,-0.155
604245,8.458333333333334,-0.145
604246,8.46111111111111,-0.125
604247,8.463888888888889,-0.135
604248,8.466666666666667,-0.125
604249,8.469444444444445,-0.12
604250,8.472222222222221,-0.125
604251,8.475,-0.135
604252,8.477777777777778,-0.13
604253,8.480555555555556,-0.14
604254,8.483333333333333,-0.145
604255,8.48611111111111,-0.15
604256,8.488888888888889,-0.15
604257,8.491666666666667,-0.135
604258,8.494444444444444,-0.135
604259,8.497222222222222,-0.125
604260,8.5,-0.125
604261,8.502777777777778,-0.13
604262,8.505555555555556,-0.14
604263,8.508333333333333,-0.15
604264,8.511111111111111,-0.145
604265,8.51388888888889,-0.17
604266,8.516666666666667,-0.17
604267,8.519444444444444,-0.18
604268,8.522222222222222,-0.155
604269,8.525,-0.155
604270,8.527777777777779,-0.13
604271,8.530555555555555,-0.13
604272,8.533333333333333,-0.135
604273,8.536111111111111,-0.14
604274,8.53888888888889,-0.14
604275,8.541666666666666,-0.145
604276,8.544444444444444,-0.145
604277,8.547222222222222,-0.155
604278,8.55,-0.17
604279,8.552777777777777,-0.18
604280,8.555555555555555,-0.18
604281,8.558333333333334,-0.165
604282,8.561111111111112,-0.175
604283,8.563888888888888,-0.15
604284,8.566666666666666,-0.155
604285,8.569444444444445,-0.15
604286,8.572222222222223,-0.15
604287,8.575,-0.145
604288,8.577777777777778,-0.15
604289,8.580555555555556,-0.15
604290,8.583333333333334,-0.145
604291,8.58611111111111,-0.14
604292,8.588888888888889,-0.125
604293,8.591666666666667,-0.11
604294,8.594444444444445,-0.095
604295,8.597222222222221,-0.08
604296,8.6,-0.065
604297,8.602777777777778,-0.055
604298,8.605555555555556,-0.04
604299,8.608333333333333,-0.02
604300,8.61111111111111,-0.015
604301,8.613888888888889,-0.005
604302,8.616666666666667,0.02
604303,8.619444444444444,0.02
604304,8.622222222222222,0.025
604305,8.625,0.02
604306,8.627777777777778,0.01
604307,8.630555555555556,0.015
604308,8.633333333333333,0.0
604309,8.636111111111111,0.0
604310,8.63888888888889,-0.01
604311,8.641666666666667,-0.025
604312,8.644444444444444,-0.055
604313,8.647222222222222,-0.075
604314,8.65,-0.105
604315,8.652777777777779,-0.125
604316,8.655555555555555,-0.14
604317,8.658333333333333,-0.175
604318,8.661111111111111,-0.165
604319,8.66388888888889,-0.17
604320,8.666666666666666,-0.175
604321,8.669444444444444,-0.185
604322,8.672222222222222,-0.18
604323,8.675,-0.185
604324,8.677777777777777,-0.205
604325,8.680555555555555,-0.205
604326,8.683333333333334,-0.215
604327,8.686111111111112,-0.23
604328,8.688888888888888,-0.22
604329,8.691666666666666,-0.215
604330,8.694444444444445,-0.225
604331,8.697222222222223,-0.215
604332,8.7,-0.21
604333,8.702777777777778,-0.205
604334,8.705555555555556,-0.2
604335,8.708333333333334,-0.225
604336,8.71111111111111,-0.24
604337,8.713888888888889,-0.25
604338,8.716666666666667,-0.245
604339,8.719444444444445,-0.23
604340,8.722222222222221,-0.16
604341,8.725,-0.08
604342,8.727777777777778,0.03
604343,8.730555555555556,0.235
604344,8.733333333333333,0.46
604345,8.73611111111111,0.74
604346,8.738888888888889,1.02
604347,8.741666666666667,1.285
604348,8.744444444444444,1.485
604349,8.747222222222222,1.59
604350,8.75,1.54
604351,8.752777777777778,1.38
604352,8.755555555555556,1.11
604353,8.758333333333333,0.79
604354,8.761111111111111,0.475
604355,8.76388888888889,0.19
604356,8.766666666666667,-0.015
604357,8.769444444444444,-0.155
604358,8.772222222222222,-0.22
604359,8.775,-0.24
604360,8.777777777777779,-0.245
604361,8.780555555555555,-0.23
604362,8.783333333333333,-0.21
604363,8.786111111111111,-0.215
604364,8.78888888888889,-0.235
604365,8.791666666666666,-0.25
604366,8.794444444444444,-0.28
604367,8.797222222222222,-0.28
604368,8.8,-0.285
604369,8.802777777777777,-0.285
604370,8.805555555555555,-0.295
604371,8.808333333333334,-0.3
604372,8.811111111111112,-0.315
604373,8.813888888888888,-0.325
604374,8.816666666666666,-0.335
604375,8.819444444444445,-0.335
604376,8.822222222222223,-0.335
604377,8.825,-0.335
604378,8.827777777777778,-0.34
604379,8.830555555555556,-0.335
604380,8.833333333333334,-0.32
604381,8.83611111111111,-0.315
604382,8.838888888888889,-0.315
604383,8.841666666666667,-0.31
604384,8.844444444444445,-0.32
604385,8.847222222222221,-0.325
604386,8.85,-0.325
604387,8.852777777777778,-0.33
604388,8.855555555555556,-0.33
604389,8.858333333333333,-0.33
604390,8.86111111111111,-0.335
604391,8.863888888888889,-0.315
604392,8.866666666666667,-0.305
604393,8.869444444444444,-0.29
604394,8.872222222222222,-0.29
604395,8.875,-0.295
604396,8.877777777777778,-0.3
604397,8.880555555555556,-0.305
604398,8.883333333333333,-0.305
604399,8.886111111111111,-0.315
604400,8.88888888888889,-0.3
604401,8.891666666666667,-0.305
604402,8.894444444444444,-0.31
604403,8.897222222222222,-0.3
604404,8.9,-0.29
604405,8.902777777777779,-0.27
604406,8.905555555555555,-0.26
604407,8.908333333333333,-0.255
604408,8.911111111111111,-0.27
604409,8.91388888888889,-0.28
604410,8.916666666666666,-0.29
604411,8.919444444444444,-0.285
604412,8.922222222222222,-0.285
604413,8.925,-0.27
604414,8.927777777777777,-0.26
604415,8.930555555555555,-0.25
604416,8.933333333333334,-0.24
604417,8.936111111111112,-0.225
604418,8.938888888888888,-0.22
604419,8.941666666666666,-0.23
604420,8.944444444444445,-0.23
604421,8.947222222222223,-0.245
604422,8.95,-0.245
604423,8.952777777777778,-0.24
604424,8.955555555555556,-0.23
604425,8.958333333333334,-0.235
604426,8.96111111111111,-0.21
604427,8.963888888888889,-0.215
604428,8.966666666666667,-0.21
604429,8.969444444444445,-0.21
604430,8.972222222222221,-0.2
604431,8.975,-0.19
604432,8.977777777777778,-0.19
604433,8.980555555555556,-0.195
604434,8.983333333333333,-0.21
604435,8.98611111111111,-0.215
604436,8.988888888888889,-0.2
604437,8.991666666666667,-0.205
604438,8.994444444444444,-0.2
604439,8.997222222222222,-0.22
604440,9.0,-0.2
604441,9.002777777777778,-0.185
604442,9.005555555555556,-0.195
604443,9.008333333333333,-0.18
604444,9.011111111111111,-0.18
604445,9.01388888888889,-0.18
604446,9.016666666666667,-0.175
604447,9.019444444444444,-0.17
604448,9.022222222222222,-0.165
604449,9.025,-0.15
604450,9.027777777777779,-0.14
604451,9.030555555555555,-0.125
604452,9.033333333333333,-0.13
604453,9.036111111111111,-0.12
604454,9.03888888888889,-0.11
604455,9.041666666666666,-0.115
604456,9.044444444444444,-0.11
604457,9.047222222222222,-0.115
604458,9.05,-0.13
604459,9.052777777777777,-0.145
604460,9.055555555555555,-0.155
604461,9.058333333333334,-0.15
604462,9.061111111111112,-0.14
604463,9.063888888888888,-0.135
604464,9.066666666666666,-0.14
604465,9.069444444444445,-0.135
604466,9.072222222222223,-0.15
604467,9.075,-0.15
604468,9.077777777777778,-0.165
604469,9.080555555555556,-0.16
604470,9.083333333333334,-0.155
604471,9.08611111111111,-0.16
604472,9.088888888888889,-0.16
604473,9.091666666666667,-0.18
604474,9.094444444444445,-0.17
604475,9.097222222222221,-0.17
604476,9.1,-0.17
604477,9.102777777777778,-0.16
604478,9.105555555555556,-0.17
604479,9.108333333333333,-0.16
604480,9.11111111111111,-0.155
604481,9.113888888888889,-0.155
604482,9.116666666666667,-0.165
604483,9.119444444444444,-0.165
604484,9.122222222222222,-0.17
604485,9.125,-0.17
604486,9.127777777777778,-0.175
604487,9.130555555555556,-0.165
604488,9.133333333333333,-0.16
604489,9.136111111111111,-0.16
604490,9.13888888888889,-0.175
604491,9.141666666666667,-0.165
604492,9.144444444444444,-0.175
604493,9.147222222222222,-0.16
604494,9.15,-0.17
604495,9.152777777777779,-0.17
604496,9.155555555555555,-0.17
604497,9.158333333333333,-0.17
604498,9.161111111111111,-0.165
604499,9.16388888888889,-0.16
604500,9.166666666666666,-0.16
604501,9.169444444444444,-0.165
604502,9.172222222222222,-0.18
604503,9.175,-0.18
604504,9.177777777777777,-0.185
604505,9.180555555555555,-0.185
604506,9.183333333333334,-0.195
604507,9.186111111111112,-0.185
604508,9.188888888888888,-0.18
604509,9.191666666666666,-0.175
604510,9.194444444444445,-0.175
604511,9.197222222222223,-0.175
604512,9.2,-0.165
604513,9.202777777777778,-0.16
604514,9.205555555555556,-0.17
604515,9.208333333333334,-0.19
604516,9.21111111111111,-0.19
604517,9.213888888888889,-0.195
604518,9.216666666666667,-0.195
604519,9.219444444444445,-0.2
604520,9.222222222222221,-0.205
604521,9.225,-0.195
604522,9.227777777777778,-0.185
604523,9.230555555555556,-0.18
604524,9.233333333333333,-0.18
604525,9.23611111111111,-0.17
604526,9.238888888888889,-0.18
604527,9.241666666666667,-0.18
604528,9.244444444444444,-0.175
604529,9.247222222222222,-0.17
604530,9.25,-0.18
604531,9.252777777777778,-0.195
604532,9.255555555555556,-0.18
604533,9.258333333333333,-0.19
604534,9.261111111111111,-0.185
604535,9.26388888888889,-0.17
604536,9.266666666666667,-0.155
604537,9.269444444444444,-0.145
604538,9.272222222222222,-0.145
604539,9.275,-0.14
604540,9.277777777777779,-0.14
604541,9.280555555555555,-0.12
604542,9.283333333333333,-0.11
604543,9.286111111111111,-0.1
604544,9.28888888888889,-0.08
604545,9.291666666666666,-0.08
604546,9.294444444444444,-0.06
604547,9.297222222222222,-0.025
604548,9.3,-0.005
604549,9.302777777777777,0.015
604550,9.305555555555555,0.01
604551,9.308333333333334,0.0
604552,9.311111111111112,-0.015
604553,9.313888888888888,-0.02
604554,9.316666666666666,-0.02
604555,9.319444444444445,-0.015
604556,9.322222222222223,-0.02
604557,9.325,-0.03
604558,9.327777777777778,-0.045
604559,9.330555555555556,-0.06
604560,9.333333333333334,-0.08
604561,9.33611111111111,-0.105
604562,9.338888888888889,-0.125
604563,9.341666666666667,-0.14
604564,9.344444444444445,-0.175
604565,9.347222222222221,-0.18
604566,9.35,-0.195
604567,9.352777777777778,-0.225
604568,9.355555555555556,-0.23
604569,9.358333333333333,-0.24
604570,9.36111111111111,-0.23
604571,9.363888888888889,-0.24
604572,9.366666666666667,-0.24
604573,9.369444444444444,-0.22
604574,9.372222222222222,-0.22
604575,9.375,-0.23
604576,9.377777777777778,-0.235
604577,9.380555555555556,-0.25
604578,9.383333333333333,-0.265
604579,9.386111111111111,-0.27
604580,9.38888888888889,-0.265
604581,9.391666666666667,-0.26
604582,9.394444444444444,-0.26
604583,9.397222222222222,-0.255
604584,9.4,-0.225
604585,9.402777777777779,-0.18
604586,9.405555555555555,-0.07
604587,9.408333333333333,0.075
604588,9.411111111111111,0.255
604589,9.41388888888889,0.495
604590,9.416666666666666,0.77
604591,9.419444444444444,1.06
604592,9.422222222222222,1.345
604593,9.425,1.545
604594,9.427777777777777,1.62
604595,9.430555555555555,1.53
604596,9.433333333333334,1.305
604597,9.436111111111112,0.985
604598,9.438888888888888,0.615
604599,9.441666666666666,0.275
604600,9.444444444444445,0.005
604601,9.447222222222223,-0.185
604602,9.45,-0.285
604603,9.452777777777778,-0.315
604604,9.455555555555556,-0.29
604605,9.458333333333334,-0.26
604606,9.46111111111111,-0.225
604607,9.463888888888889,-0.21
604608,9.466666666666667,-0.21
604609,9.469444444444445,-0.23
604610,9.472222222222221,-0.26
604611,9.475,-0.285
604612,9.477777777777778,-0.315
604613,9.480555555555556,-0.32
604614,9.483333333333333,-0.32
604615,9.48611111111111,-0.325
604616,9.488888888888889,-0.32
604617,9.491666666666667,-0.315
604618,9.494444444444444,-0.315
604619,9.497222222222222,-0.315
604620,9.5,-0.31
604621,9.502777777777778,-0.31
604622,9.505555555555556,-0.3
604623,9.508333333333333,-0.295
604624,9.511111111111111,-0.305
604625,9.51388888888889,-0.305
604626,9.516666666666667,-0.31
604627,9.519444444444444,-0.315
604628,9.522222222222222,-0.32
604629,9.525,-0.325
604630,9.527777777777779,-0.32
604631,9.530555555555555,-0.325
604632,9.533333333333333,-0.295
604633,9.536111111111111,-0.3
604634,9.53888888888889,-0.295
604635,9.541666666666666,-0.285
604636,9.544444444444444,-0.295
604637,9.547222222222222,-0.285
604638,9.55,-0.29
604639,9.552777777777777,-0.295
604640,9.555555555555555,-0.29
604641,9.558333333333334,-0.3
604642,9.561111111111112,-0.295
604643,9.563888888888888,-0.285
604644,9.566666666666666,-0.29
604645,9.569444444444445,-0.275
604646,9.572222222222223,-0.27
604647,9.575,-0.26
604648,9.577777777777778,-0.265
604649,9.580555555555556,-0.265
604650,9.583333333333334,-0.27
604651,9.58611111111111,-0.25
604652,9.588888888888889,-0.26
604653,9.591666666666667,-0.265
604654,9.594444444444445,-0.255
604655,9.597222222222221,-0.26
604656,9.6,-0.26
604657,9.602777777777778,-0.24
604658,9.605555555555556,-0.235
604659,9.608333333333333,-0.23
604660,9.61111111111111,-0.225
604661,9.613888888888889,-0.21
604662,9.616666666666667,-0.21
604663,9.619444444444444,-0.22
604664,9.622222222222222,-0.215
604665,9.625,-0.215
604666,9.627777777777778,-0.215
604667,9.630555555555556,-0.205
604668,9.633333333333333,-0.195
604669,9.636111111111111,-0.185
604670,9.63888888888889,-0.18
604671,9.641666666666667,-0.18
604672,9.644444444444444,-0.185
604673,9.647222222222222,-0.185
604674,9.65,-0.185
604675,9.652777777777779,-0.2
604676,9.655555555555555,-0.2
604677,9.658333333333333,-0.19
604678,9.661111111111111,-0.195
604679,9.66388888888889,-0.195
604680,9.666666666666666,-0.185
604681,9.669444444444444,-0.17
604682,9.672222222222222,-0.18
604683,9.675,-0.175
604684,9.677777777777777,-0.18
604685,9.680555555555555,-0.175
604686,9.683333333333334,-0.18
604687,9.686111111111112,-0.17
604688,9.688888888888888,-0.17
604689,9.691666666666666,-0.16
604690,9.694444444444445,-0.15
604691,9.697222222222223,-0.145
604692,9.7,-0.13
604693,9.702777777777778,-0.115
604694,9.705555555555556,-0.115
604695,9.708333333333334,-0.105
604696,9.71111111111111,-0.105
604697,9.713888888888889,-0.105
604698,9.716666666666667,-0.115
604699,9.719444444444445,-0.125
604700,9.722222222222221,-0.13
604701,9.725,-0.14
604702,9.727777777777778,-0.135
604703,9.730555555555556,-0.14
604704,9.733333333333333,-0.135
604705,9.73611111111111,-0.12
604706,9.738888888888889,-0.135
604707,9.741666666666667,-0.14
604708,9.744444444444444,-0.15
604709,9.747222222222222,-0.155
604710,9.75,-0.155
604711,9.752777777777778,-0.17
604712,9.755555555555556,-0.165
604713,9.758333333333333,-0.175
604714,9.761111111111111,-0.18
604715,9.76388888888889,-0.165
604716,9.766666666666667,-0.16
604717,9.769444444444444,-0.15
604718,9.772222222222222,-0.155
604719,9.775,-0.145
604720,9.777777777777779,-0.155
604721,9.780555555555555,-0.175
604722,9.783333333333333,-0.175
604723,9.786111111111111,-0.165
604724,9.78888888888889,-0.17
604725,9.791666666666666,-0.16
604726,9.794444444444444,-0.16
604727,9.797222222222222,-0.155
604728,9.8,-0.165
604729,9.802777777777777,-0.15
604730,9.805555555555555,-0.155
604731,9.808333333333334,-0.155
604732,9.811111111111112,-0.155
604733,9.813888888888888,-0.16
604734,9.816666666666666,-0.17
604735,9.819444444444445,-0.165
604736,9.822222222222223,-0.16
604737,9.825,-0.16
604738,9.827777777777778,-0.155
604739,9.830555555555556,-0.145
604740,9.833333333333334,-0.135
604741,9.83611111111111,-0.125
604742,9.838888888888889,-0.14
604743,9.841666666666667,-0.135
604744,9.844444444444445,-0.145
604745,9.847222222222221,-0.15
604746,9.85,-0.16
604747,9.852777777777778,-0.16
604748,9.855555555555556,-0.145
604749,9.858333333333333,-0.135
604750,9.86111111111111,-0.125
604751,9.863888888888889,-0.12
604752,9.866666666666667,-0.125
604753,9.869444444444444,-0.135
604754,9.872222222222222,-0.14
604755,9.875,-0.145
604756,9.877777777777778,-0.145
604757,9.880555555555556,-0.155
604758,9.883333333333333,-0.16
604759,9.886111111111111,-0.165
604760,9.88888888888889,-0.155
604761,9.891666666666667,-0.145
604762,9.894444444444444,-0.14
604763,9.897222222222222,-0.135
604764,9.9,-0.13
604765,9.902777777777779,-0.14
604766,9.905555555555555,-0.145
604767,9.908333333333333,-0.155
604768,9.911111111111111,-0.165
604769,9.91388888888889,-0.165
604770,9.916666666666666,-0.16
604771,9.919444444444444,-0.18
604772,9.922222222222222,-0.16
604773,9.925,-0.17
604774,9.927777777777777,-0.155
604775,9.930555555555555,-0.145
604776,9.933333333333334,-0.14
604777,9.936111111111112,-0.13
604778,9.938888888888888,-0.13
604779,9.941666666666666,-0.125
604780,9.944444444444445,-0.12
604781,9.947222222222223,-0.12
604782,9.95,-0.12
604783,9.952777777777778,-0.12
604784,9.955555555555556,-0.105
604785,9.958333333333334,-0.1
604786,9.96111111111111,-0.09
604787,9.963888888888889,-0.075
604788,9.966666666666667,-0.045
604789,9.969444444444445,-0.025
604790,9.972222222222221,-0.015
604791,9.975,0.005
604792,9.977777777777778,0.025
604793,9.980555555555556,0.025
604794,9.983333333333333,0.005
604795,9.98611111111111,-0.015
604796,9.988888888888889,-0.02
604797,9.991666666666667,-0.015
604798,9.994444444444444,-0.005
604799,9.997222222222222,0.01
