source_sample,relative_time_s,raw_MLII
487800,0.0,3.265
487801,0.002777777777777778,3.26
487802,0.005555555555555556,3.265
487803,0.008333333333333333,3.285
487804,0.011111111111111112,3.28
487805,0.013888888888888888,3.27
487806,0.016666666666666666,3.26
487807,0.019444444444444445,3.26
487808,0.022222222222222223,3.22
487809,0.025,3.21
487810,0.027777777777777776,3.22
487811,0.030555555555555555,3.24
487812,0.03333333333333333,3.24
487813,0.03611111111111111,3.24
487814,0.03888888888888889,3.25
487815,0.041666666666666664,3.26
487816,0.044444444444444446,3.255
487817,0.04722222222222222,3.235
487818,0.05,3.225
487819,0.05277777777777778,3.21
487820,0.05555555555555555,3.21
487821,0.058333333333333334,3.21
487822,0.06111111111111111,3.19
487823,0.06388888888888888,3.2
487824,0.06666666666666667,3.195
487825,0.06944444444444445,3.195
487826,0.07222222222222222,3.205
487827,0.075,3.205
487828,0.07777777777777778,3.205
487829,0.08055555555555556,3.19
487830,0.08333333333333333,3.17
487831,0.08611111111111111,3.16
487832,0.08888888888888889,3.165
487833,0.09166666666666666,3.16
487834,0.09444444444444444,3.155
487835,0.09722222222222222,3.155
487836,0.1,3.155
487837,0.10277777777777777,3.16
487838,0.10555555555555556,3.18
487839,0.10833333333333334,3.165
487840,0.1111111111111111,3.155
487841,0.11388888888888889,3.145
487842,0.11666666666666667,3.14
487843,0.11944444444444445,3.135
487844,0.12222222222222222,3.14
487845,0.125,3.125
487846,0.12777777777777777,3.105
487847,0.13055555555555556,3.125
487848,0.13333333333333333,3.12
487849,0.1361111111111111,3.125
487850,0.1388888888888889,3.11
487851,0.14166666666666666,3.12
487852,0.14444444444444443,3.135
487853,0.14722222222222223,3.12
487854,0.15,3.1
487855,0.1527777777777778,3.1
487856,0.15555555555555556,3.09
487857,0.15833333333333333,3.08
487858,0.16111111111111112,3.075
487859,0.1638888888888889,3.065
487860,0.16666666666666666,3.09
487861,0.16944444444444445,3.095
487862,0.17222222222222222,3.1
487863,0.175,3.105
487864,0.17777777777777778,3.095
487865,0.18055555555555555,3.09
487866,0.18333333333333332,3.085
487867,0.18611111111111112,3.085
487868,0.18888888888888888,3.065
487869,0.19166666666666668,3.055
487870,0.19444444444444445,3.055
487871,0.19722222222222222,3.065
487872,0.2,3.07
487873,0.20277777777777778,3.04
487874,0.20555555555555555,3.055
487875,0.20833333333333334,3.075
487876,0.2111111111111111,3.06
487877,0.21388888888888888,3.065
487878,0.21666666666666667,3.045
487879,0.21944444444444444,3.04
487880,0.2222222222222222,3.025
487881,0.225,3.01
487882,0.22777777777777777,3.015
487883,0.23055555555555557,3.015
487884,0.23333333333333334,3.025
487885,0.2361111111111111,3.005
487886,0.2388888888888889,3.005
487887,0.24166666666666667,3.02
487888,0.24444444444444444,3.02
487889,0.24722222222222223,3.015
487890,0.25,3.0
487891,0.25277777777777777,2.985
487892,0.25555555555555554,2.975
487893,0.25833333333333336,2.975
487894,0.2611111111111111,2.97
487895,0.2638888888888889,2.97
487896,0.26666666666666666,2.985
487897,0.26944444444444443,2.98
487898,0.2722222222222222,2.98
487899,0.275,3.0
487900,0.2777777777777778,2.985
487901,0.28055555555555556,2.98
487902,0.2833333333333333,2.98
487903,0.2861111111111111,2.955
487904,0.28888888888888886,2.95
487905,0.2916666666666667,2.95
487906,0.29444444444444445,2.925
487907,0.2972222222222222,2.93
487908,0.3,2.945
487909,0.30277777777777776,2.955
487910,0.3055555555555556,2.955
487911,0.30833333333333335,2.95
487912,0.3111111111111111,2.96
487913,0.3138888888888889,2.955
487914,0.31666666666666665,2.915
487915,0.3194444444444444,2.925
487916,0.32222222222222224,2.91
487917,0.325,2.905
487918,0.3277777777777778,2.895
487919,0.33055555555555555,2.9
487920,0.3333333333333333,2.9
487921,0.33611111111111114,2.885
487922,0.3388888888888889,2.89
487923,0.3416666666666667,2.89
487924,0.34444444444444444,2.88
487925,0.3472222222222222,2.87
487926,0.35,2.855
487927,0.3527777777777778,2.845
487928,0.35555555555555557,2.815
487929,0.35833333333333334,2.815
487930,0.3611111111111111,2.825
487931,0.3638888888888889,2.82
487932,0.36666666666666664,2.825
487933,0.36944444444444446,2.845
487934,0.37222222222222223,2.85
487935,0.375,2.86
487936,0.37777777777777777,2.855
487937,0.38055555555555554,2.86
487938,0.38333333333333336,2.85
487939,0.3861111111111111,2.825
487940,0.3888888888888889,2.825
487941,0.39166666666666666,2.81
487942,0.39444444444444443,2.79
487943,0.3972222222222222,2.78
487944,0.4,2.79
487945,0.4027777777777778,2.8
487946,0.40555555555555556,2.805
487947,0.4083333333333333,2.815
487948,0.4111111111111111,2.8
487949,0.41388888888888886,2.8
487950,0.4166666666666667,2.795
487951,0.41944444444444445,2.78
487952,0.4222222222222222,2.77
487953,0.425,2.755
487954,0.42777777777777776,2.76
487955,0.4305555555555556,2.745
487956,0.43333333333333335,2.745
487957,0.4361111111111111,2.75
487958,0.4388888888888889,2.75
487959,0.44166666666666665,2.75
487960,0.4444444444444444,2.75
487961,0.44722222222222224,2.755
487962,0.45,2.73
487963,0.4527777777777778,2.715
487964,0.45555555555555555,2.71
487965,0.4583333333333333,2.705
487966,0.46111111111111114,2.705
487967,0.4638888888888889,2.7
487968,0.4666666666666667,2.705
487969,0.46944444444444444,2.695
487970,0.4722222222222222,2.71
487971,0.475,2.71
487972,0.4777777777777778,2.705
487973,0.48055555555555557,2.71
487974,0.48333333333333334,2.69
487975,0.4861111111111111,2.69
487976,0.4888888888888889,2.675
487977,0.49166666666666664,2.66
487978,0.49444444444444446,2.655
487979,0.49722222222222223,2.64
487980,0.5,2.65
487981,0.5027777777777778,2.66
487982,0.5055555555555555,2.665
487983,0.5083333333333333,2.67
487984,0.5111111111111111,2.66
487985,0.5138888888888888,2.655
487986,0.5166666666666667,2.64
487987,0.5194444444444445,2.635
487988,0.5222222222222223,2.625
487989,0.525,2.615
487990,0.5277777777777778,2.625
487991,0.5305555555555556,2.62
487992,0.5333333333333333,2.625
487993,0.5361111111111111,2.625
487994,0.5388888888888889,2.63
487995,0.5416666666666666,2.64
487996,0.5444444444444444,2.625
487997,0.5472222222222223,2.615
487998,0.55,2.6
487999,0.5527777777777778,2.595
488000,0.5555555555555556,2.595
488001,0.5583333333333333,2.575
488002,0.5611111111111111,2.57
488003,0.5638888888888889,2.56
488004,0.5666666666666667,2.57
488005,0.5694444444444444,2.565
488006,0.5722222222222222,2.565
488007,0.575,2.57
488008,0.5777777777777777,2.57
488009,0.5805555555555556,2.565
488010,0.5833333333333334,2.55
488011,0.5861111111111111,2.54
488012,0.5888888888888889,2.54
488013,0.5916666666666667,2.545
488014,0.5944444444444444,2.535
488015,0.5972222222222222,2.54
488016,0.6,2.555
488017,0.6027777777777777,2.555
488018,0.6055555555555555,2.555
488019,0.6083333333333333,2.55
488020,0.6111111111111112,2.535
488021,0.6138888888888889,2.55
488022,0.6166666666666667,2.545
488023,0.6194444444444445,2.53
488024,0.6222222222222222,2.52
488025,0.625,2.515
488026,0.6277777777777778,2.49
488027,0.6305555555555555,2.49
488028,0.6333333333333333,2.485
488029,0.6361111111111111,2.51
488030,0.6388888888888888,2.505
488031,0.6416666666666667,2.505
488032,0.6444444444444445,2.51
488033,0.6472222222222223,2.5
488034,0.65,2.495
488035,0.6527777777777778,2.475
488036,0.6555555555555556,2.47
488037,0.6583333333333333,2.46
488038,0.6611111111111111,2.455
488039,0.6638888888888889,2.465
488040,0.6666666666666666,2.465
488041,0.6694444444444444,2.465
488042,0.6722222222222223,2.47
488043,0.675,2.485
488044,0.6777777777777778,2.46
488045,0.6805555555555556,2.455
488046,0.6833333333333333,2.47
488047,0.6861111111111111,2.455
488048,0.6888888888888889,2.435
488049,0.6916666666666667,2.43
488050,0.6944444444444444,2.42
488051,0.6972222222222222,2.435
488052,0.7,2.425
488053,0.7027777777777777,2.425
488054,0.7055555555555556,2.44
488055,0.7083333333333334,2.44
488056,0.7111111111111111,2.425
488057,0.7138888888888889,2.43
488058,0.7166666666666667,2.415
488059,0.7194444444444444,2.395
488060,0.7222222222222222,2.37
488061,0.725,2.375
488062,0.7277777777777777,2.36
488063,0.7305555555555555,2.375
488064,0.7333333333333333,2.37
488065,0.7361111111111112,2.38
488066,0.7388888888888889,2.385
488067,0.7416666666666667,2.385
488068,0.7444444444444445,2.375
488069,0.7472222222222222,2.39
488070,0.75,2.35
488071,0.7527777777777778,2.355
488072,0.7555555555555555,2.355
488073,0.7583333333333333,2.34
488074,0.7611111111111111,2.325
488075,0.7638888888888888,2.32
488076,0.7666666666666667,2.33
488077,0.7694444444444445,2.33
488078,0.7722222222222223,2.34
488079,0.775,2.335
488080,0.7777777777777778,2.33
488081,0.7805555555555556,2.325
488082,0.7833333333333333,2.32
488083,0.7861111111111111,2.31
488084,0.7888888888888889,2.29
488085,0.7916666666666666,2.3
488086,0.7944444444444444,2.27
488087,0.7972222222222223,2.28
488088,0.8,2.275
488089,0.8027777777777778,2.275
488090,0.8055555555555556,2.295
488091,0.8083333333333333,2.295
488092,0.8111111111111111,2.275
488093,0.8138888888888889,2.28
488094,0.8166666666666667,2.27
488095,0.8194444444444444,2.255
488096,0.8222222222222222,2.23
488097,0.825,2.24
488098,0.8277777777777777,2.22
488099,0.8305555555555556,2.225
488100,0.8333333333333334,2.23
488101,0.8361111111111111,2.235
488102,0.8388888888888889,2.245
488103,0.8416666666666667,2.245
488104,0.8444444444444444,2.245
488105,0.8472222222222222,2.23
488106,0.85,2.21
488107,0.8527777777777777,2.205
488108,0.8555555555555555,2.2
488109,0.8583333333333333,2.19
488110,0.8611111111111112,2.205
488111,0.8638888888888889,2.195
488112,0.8666666666666667,2.2
488113,0.8694444444444445,2.2
488114,0.8722222222222222,2.215
488115,0.875,2.22
488116,0.8777777777777778,2.2
488117,0.8805555555555555,2.19
488118,0.8833333333333333,2.185
488119,0.8861111111111111,2.15
488120,0.8888888888888888,2.15
488121,0.8916666666666667,2.145
488122,0.8944444444444445,2.125
488123,0.8972222222222223,2.13
488124,0.9,2.13
488125,0.9027777777777778,2.135
488126,0.9055555555555556,2.15
488127,0.9083333333333333,2.16
488128,0.9111111111111111,2.16
488129,0.9138888888888889,2.16
488130,0.9166666666666666,2.145
488131,0.9194444444444444,2.135
488132,0.9222222222222223,2.12
488133,0.925,2.12
488134,0.9277777777777778,2.11
488135,0.9305555555555556,2.115
488136,0.9333333333333333,2.11
488137,0.9361111111111111,2.125
488138,0.9388888888888889,2.13
488139,0.9416666666666667,2.125
488140,0.9444444444444444,2.135
488141,0.9472222222222222,2.13
488142,0.95,2.095
488143,0.9527777777777777,2.1
488144,0.9555555555555556,2.095
488145,0.9583333333333334,2.075
488146,0.9611111111111111,2.075
488147,0.9638888888888889,2.085
488148,0.9666666666666667,2.075
488149,0.9694444444444444,2.095
488150,0.9722222222222222,2.1
488151,0.975,2.11
488152,0.9777777777777777,2.1
488153,0.9805555555555555,2.08
488154,0.9833333333333333,2.06
488155,0.9861111111111112,2.05
488156,0.9888888888888889,2.05
488157,0.9916666666666667,2.045
488158,0.9944444444444445,2.03
488159,0.9972222222222222,2.03
488160,1.0,2.035
488161,1.0027777777777778,2.045
488162,1.0055555555555555,2.05
488163,1.0083333333333333,2.065
488164,1.011111111111111,2.055
488165,1.0138888888888888,2.055
488166,1.0166666666666666,2.05
488167,1.0194444444444444,2.02
488168,1.0222222222222221,2.02
488169,1.025,2.01
488170,1.0277777777777777,2.0
488171,1.0305555555555554,2.005
488172,1.0333333333333334,2.01
488173,1.0361111111111112,2.015
488174,1.038888888888889,2.035
488175,1.0416666666666667,2.03
488176,1.0444444444444445,2.025
488177,1.0472222222222223,2.02
488178,1.05,2.005
488179,1.0527777777777778,1.995
488180,1.0555555555555556,1.985
488181,1.0583333333333333,1.965
488182,1.0611111111111111,1.96
488183,1.0638888888888889,1.97
488184,1.0666666666666667,1.955
488185,1.0694444444444444,1.985
488186,1.0722222222222222,1.99
488187,1.075,1.995
488188,1.0777777777777777,1.99
488189,1.0805555555555555,1.98
488190,1.0833333333333333,1.96
488191,1.086111111111111,1.96
488192,1.0888888888888888,1.94
488193,1.0916666666666666,1.925
488194,1.0944444444444446,1.915
488195,1.0972222222222223,1.915
488196,1.1,1.92
488197,1.1027777777777779,1.935
488198,1.1055555555555556,1.94
488199,1.1083333333333334,1.95
488200,1.1111111111111112,1.925
488201,1.113888888888889,1.915
488202,1.1166666666666667,1.92
488203,1.1194444444444445,1.905
488204,1.1222222222222222,1.905
488205,1.125,1.9
488206,1.1277777777777778,1.9
488207,1.1305555555555555,1.89
488208,1.1333333333333333,1.91
488209,1.136111111111111,1.9
488210,1.1388888888888888,1.895
488211,1.1416666666666666,1.92
488212,1.1444444444444444,1.905
488213,1.1472222222222221,1.905
488214,1.15,1.905
488215,1.1527777777777777,1.895
488216,1.1555555555555554,1.875
488217,1.1583333333333334,1.875
488218,1.1611111111111112,1.865
488219,1.163888888888889,1.85
488220,1.1666666666666667,1.865
488221,1.1694444444444445,1.875
488222,1.1722222222222223,1.89
488223,1.175,1.875
488224,1.1777777777777778,1.87
488225,1.1805555555555556,1.855
488226,1.1833333333333333,1.85
488227,1.1861111111111111,1.845
488228,1.1888888888888889,1.84
488229,1.1916666666666667,1.825
488230,1.1944444444444444,1.81
488231,1.1972222222222222,1.8
488232,1.2,1.825
488233,1.2027777777777777,1.835
488234,1.2055555555555555,1.825
488235,1.2083333333333333,1.84
488236,1.211111111111111,1.845
488237,1.2138888888888888,1.835
488238,1.2166666666666666,1.815
488239,1.2194444444444446,1.81
488240,1.2222222222222223,1.8
488241,1.225,1.795
488242,1.2277777777777779,1.79
488243,1.2305555555555556,1.79
488244,1.2333333333333334,1.785
488245,1.2361111111111112,1.795
488246,1.238888888888889,1.79
488247,1.2416666666666667,1.81
488248,1.2444444444444445,1.8
488249,1.2472222222222222,1.78
488250,1.25,1.775
488251,1.2527777777777778,1.76
488252,1.2555555555555555,1.755
488253,1.2583333333333333,1.755
488254,1.261111111111111,1.735
488255,1.2638888888888888,1.745
488256,1.2666666666666666,1.745
488257,1.2694444444444444,1.75
488258,1.2722222222222221,1.755
488259,1.275,1.76
488260,1.2777777777777777,1.765
488261,1.2805555555555554,1.75
488262,1.2833333333333334,1.72
488263,1.2861111111111112,1.695
488264,1.288888888888889,1.695
488265,1.2916666666666667,1.695
488266,1.2944444444444445,1.685
488267,1.2972222222222223,1.68
488268,1.3,1.705
488269,1.3027777777777778,1.705
488270,1.3055555555555556,1.715
488271,1.3083333333333333,1.715
488272,1.3111111111111111,1.705
488273,1.3138888888888889,1.695
488274,1.3166666666666667,1.695
488275,1.3194444444444444,1.675
488276,1.3222222222222222,1.655
488277,1.325,1.65
488278,1.3277777777777777,1.66
488279,1.3305555555555555,1.65
488280,1.3333333333333333,1.66
488281,1.336111111111111,1.665
488282,1.3388888888888888,1.675
488283,1.3416666666666666,1.685
488284,1.3444444444444446,1.665
488285,1.3472222222222223,1.655
488286,1.35,1.665
488287,1.3527777777777779,1.645
488288,1.3555555555555556,1.635
488289,1.3583333333333334,1.64
488290,1.3611111111111112,1.635
488291,1.363888888888889,1.63
488292,1.3666666666666667,1.645
488293,1.3694444444444445,1.645
488294,1.3722222222222222,1.65
488295,1.375,1.67
488296,1.3777777777777778,1.645
488297,1.3805555555555555,1.65
488298,1.3833333333333333,1.635
488299,1.386111111111111,1.62
488300,1.3888888888888888,1.615
488301,1.3916666666666666,1.62
488302,1.3944444444444444,1.615
488303,1.3972222222222221,1.615
488304,1.4,1.625
488305,1.4027777777777777,1.615
488306,1.4055555555555554,1.615
488307,1.4083333333333334,1.63
488308,1.4111111111111112,1.625
488309,1.413888888888889,1.62
488310,1.4166666666666667,1.63
488311,1.4194444444444445,1.595
488312,1.4222222222222223,1.6
488313,1.425,1.595
488314,1.4277777777777778,1.585
488315,1.4305555555555556,1.565
488316,1.4333333333333333,1.595
488317,1.4361111111111111,1.595
488318,1.4388888888888889,1.605
488319,1.4416666666666667,1.6
488320,1.4444444444444444,1.605
488321,1.4472222222222222,1.595
488322,1.45,1.585
488323,1.4527777777777777,1.575
488324,1.4555555555555555,1.575
488325,1.4583333333333333,1.555
488326,1.461111111111111,1.555
488327,1.4638888888888888,1.56
488328,1.4666666666666666,1.56
488329,1.4694444444444446,1.565
488330,1.4722222222222223,1.565
488331,1.475,1.585
488332,1.4777777777777779,1.575
488333,1.4805555555555556,1.58
488334,1.4833333333333334,1.56
488335,1.4861111111111112,1.55
488336,1.488888888888889,1.525
488337,1.4916666666666667,1.52
488338,1.4944444444444445,1.52
488339,1.4972222222222222,1.53
488340,1.5,1.525
488341,1.5027777777777778,1.51
488342,1.5055555555555555,1.53
488343,1.5083333333333333,1.545
488344,1.511111111111111,1.53
488345,1.5138888888888888,1.525
488346,1.5166666666666666,1.51
488347,1.5194444444444444,1.495
488348,1.5222222222222221,1.485
488349,1.525,1.48
488350,1.5277777777777777,1.48
488351,1.5305555555555554,1.475
488352,1.5333333333333334,1.48
488353,1.5361111111111112,1.485
488354,1.538888888888889,1.48
488355,1.5416666666666667,1.5
488356,1.5444444444444445,1.49
488357,1.5472222222222223,1.49
488358,1.55,1.475
488359,1.5527777777777778,1.48
488360,1.5555555555555556,1.46
488361,1.5583333333333333,1.455
488362,1.5611111111111111,1.455
488363,1.5638888888888889,1.45
488364,1.5666666666666667,1.45
488365,1.5694444444444444,1.455
488366,1.5722222222222222,1.46
488367,1.575,1.455
488368,1.5777777777777777,1.45
488369,1.5805555555555555,1.445
488370,1.5833333333333333,1.45
488371,1.586111111111111,1.44
488372,1.5888888888888888,1.43
488373,1.5916666666666666,1.41
488374,1.5944444444444446,1.41
488375,1.5972222222222223,1.405
488376,1.6,1.41
488377,1.6027777777777779,1.395
488378,1.6055555555555556,1.415
488379,1.6083333333333334,1.42
488380,1.6111111111111112,1.415
488381,1.613888888888889,1.415
488382,1.6166666666666667,1.395
488383,1.6194444444444445,1.385
488384,1.6222222222222222,1.375
488385,1.625,1.37
488386,1.6277777777777778,1.35
488387,1.6305555555555555,1.36
488388,1.6333333333333333,1.385
488389,1.636111111111111,1.37
488390,1.6388888888888888,1.39
488391,1.6416666666666666,1.385
488392,1.6444444444444444,1.37
488393,1.6472222222222221,1.39
488394,1.65,1.375
488395,1.6527777777777777,1.365
488396,1.6555555555555554,1.36
488397,1.6583333333333334,1.34
488398,1.6611111111111112,1.33
488399,1.663888888888889,1.325
488400,1.6666666666666667,1.335
488401,1.6694444444444445,1.325
488402,1.6722222222222223,1.345
488403,1.675,1.36
488404,1.6777777777777778,1.36
488405,1.6805555555555556,1.35
488406,1.6833333333333333,1.345
488407,1.6861111111111111,1.325
488408,1.6888888888888889,1.33
488409,1.6916666666666667,1.325
488410,1.6944444444444444,1.315
488411,1.6972222222222222,1.305
488412,1.7,1.325
488413,1.7027777777777777,1.315
488414,1.7055555555555555,1.305
488415,1.7083333333333333,1.3
488416,1.711111111111111,1.305
488417,1.7138888888888888,1.3
488418,1.7166666666666666,1.31
488419,1.7194444444444446,1.29
488420,1.7222222222222223,1.295
488421,1.725,1.29
488422,1.7277777777777779,1.28
488423,1.7305555555555556,1.28
488424,1.7333333333333334,1.29
488425,1.7361111111111112,1.28
488426,1.738888888888889,1.29
488427,1.7416666666666667,1.305
488428,1.7444444444444445,1.295
488429,1.7472222222222222,1.28
488430,1.75,1.28
488431,1.7527777777777778,1.26
488432,1.7555555555555555,1.265
488433,1.7583333333333333,1.245
488434,1.761111111111111,1.245
488435,1.7638888888888888,1.23
488436,1.7666666666666666,1.245
488437,1.7694444444444444,1.245
488438,1.7722222222222221,1.25
488439,1.775,1.255
488440,1.7777777777777777,1.265
488441,1.7805555555555554,1.26
488442,1.7833333333333334,1.25
488443,1.7861111111111112,1.24
488444,1.788888888888889,1.225
488445,1.7916666666666667,1.225
488446,1.7944444444444445,1.21
488447,1.7972222222222223,1.215
488448,1.8,1.225
488449,1.8027777777777778,1.205
488450,1.8055555555555556,1.215
488451,1.8083333333333333,1.215
488452,1.8111111111111111,1.22
488453,1.8138888888888889,1.205
488454,1.8166666666666667,1.2
488455,1.8194444444444444,1.18
488456,1.8222222222222222,1.19
488457,1.825,1.165
488458,1.8277777777777777,1.17
488459,1.8305555555555555,1.16
488460,1.8333333333333333,1.165
488461,1.836111111111111,1.18
488462,1.8388888888888888,1.19
488463,1.8416666666666666,1.195
488464,1.8444444444444446,1.19
488465,1.8472222222222223,1.19
488466,1.85,1.16
488467,1.8527777777777779,1.17
488468,1.8555555555555556,1.165
488469,1.8583333333333334,1.155
488470,1.8611111111111112,1.145
488471,1.863888888888889,1.14
488472,1.8666666666666667,1.15
488473,1.8694444444444445,1.145
488474,1.8722222222222222,1.145
488475,1.875,1.135
488476,1.8777777777777778,1.16
488477,1.8805555555555555,1.16
488478,1.8833333333333333,1.15
488479,1.886111111111111,1.14
488480,1.8888888888888888,1.135
488481,1.8916666666666666,1.13
488482,1.8944444444444444,1.105
488483,1.8972222222222221,1.11
488484,1.9,1.125
488485,1.9027777777777777,1.12
488486,1.9055555555555554,1.13
488487,1.9083333333333334,1.15
488488,1.9111111111111112,1.14
488489,1.913888888888889,1.13
488490,1.9166666666666667,1.115
488491,1.9194444444444445,1.11
488492,1.9222222222222223,1.095
488493,1.925,1.08
488494,1.9277777777777778,1.075
488495,1.9305555555555556,1.075
488496,1.9333333333333333,1.07
488497,1.9361111111111111,1.1
488498,1.9388888888888889,1.105
488499,1.9416666666666667,1.115
488500,1.9444444444444444,1.105
488501,1.9472222222222222,1.115
488502,1.95,1.085
488503,1.9527777777777777,1.085
488504,1.9555555555555555,1.08
488505,1.9583333333333333,1.07
488506,1.961111111111111,1.055
488507,1.9638888888888888,1.045
488508,1.9666666666666666,1.06
488509,1.9694444444444446,1.06
488510,1.9722222222222223,1.055
488511,1.975,1.09
488512,1.9777777777777779,1.09
488513,1.9805555555555556,1.075
488514,1.9833333333333334,1.07
488515,1.9861111111111112,1.065
488516,1.988888888888889,1.055
488517,1.9916666666666667,1.05
488518,1.9944444444444445,1.05
488519,1.9972222222222222,1.045
488520,2.0,1.04
488521,2.0027777777777778,1.06
488522,2.0055555555555555,1.04
488523,2.0083333333333333,1.055
488524,2.011111111111111,1.055
488525,2.013888888888889,1.04
488526,2.0166666666666666,1.055
488527,2.0194444444444444,1.04
488528,2.022222222222222,1.035
488529,2.025,1.03
488530,2.0277777777777777,1.02
488531,2.0305555555555554,1.01
488532,2.033333333333333,1.02
488533,2.036111111111111,1.03
488534,2.0388888888888888,1.035
488535,2.0416666666666665,1.03
488536,2.0444444444444443,1.035
488537,2.047222222222222,1.01
488538,2.05,1.01
488539,2.0527777777777776,1.0
488540,2.0555555555555554,0.975
488541,2.058333333333333,0.97
488542,2.061111111111111,0.98
488543,2.063888888888889,0.975
488544,2.066666666666667,0.965
488545,2.0694444444444446,0.99
488546,2.0722222222222224,0.995
488547,2.075,1.02
488548,2.077777777777778,1.025
488549,2.0805555555555557,1.015
488550,2.0833333333333335,1.015
488551,2.0861111111111112,1.005
488552,2.088888888888889,0.99
488553,2.091666666666667,0.985
488554,2.0944444444444446,0.97
488555,2.0972222222222223,0.975
488556,2.1,0.975
488557,2.102777777777778,0.99
488558,2.1055555555555556,1.0
488559,2.1083333333333334,1.0
488560,2.111111111111111,1.0
488561,2.113888888888889,0.995
488562,2.1166666666666667,0.985
488563,2.1194444444444445,0.975
488564,2.1222222222222222,0.965
488565,2.125,0.955
488566,2.1277777777777778,0.955
488567,2.1305555555555555,0.95
488568,2.1333333333333333,0.955
488569,2.136111111111111,0.96
488570,2.138888888888889,0.96
488571,2.1416666666666666,0.97
488572,2.1444444444444444,0.96
488573,2.147222222222222,0.96
488574,2.15,0.96
488575,2.1527777777777777,0.945
488576,2.1555555555555554,0.935
488577,2.158333333333333,0.935
488578,2.161111111111111,0.92
488579,2.1638888888888888,0.925
488580,2.1666666666666665,0.925
488581,2.1694444444444443,0.94
488582,2.172222222222222,0.935
488583,2.175,0.94
488584,2.1777777777777776,0.94
488585,2.1805555555555554,0.92
488586,2.183333333333333,0.93
488587,2.186111111111111,0.91
488588,2.188888888888889,0.91
488589,2.191666666666667,0.9
488590,2.1944444444444446,0.885
488591,2.1972222222222224,0.895
488592,2.2,0.91
488593,2.202777777777778,0.91
488594,2.2055555555555557,0.91
488595,2.2083333333333335,0.915
488596,2.2111111111111112,0.925
488597,2.213888888888889,0.925
488598,2.216666666666667,0.925
488599,2.2194444444444446,0.895
488600,2.2222222222222223,0.885
488601,2.225,0.895
488602,2.227777777777778,0.885
488603,2.2305555555555556,0.875
488604,2.2333333333333334,0.89
488605,2.236111111111111,0.895
488606,2.238888888888889,0.895
488607,2.2416666666666667,0.915
488608,2.2444444444444445,0.905
488609,2.2472222222222222,0.905
488610,2.25,0.905
488611,2.2527777777777778,0.89
488612,2.2555555555555555,0.875
488613,2.2583333333333333,0.865
488614,2.261111111111111,0.85
488615,2.263888888888889,0.85
488616,2.2666666666666666,0.86
488617,2.2694444444444444,0.855
488618,2.272222222222222,0.87
488619,2.275,0.88
488620,2.2777777777777777,0.875
488621,2.2805555555555554,0.865
488622,2.283333333333333,0.865
488623,2.286111111111111,0.855
488624,2.2888888888888888,0.845
488625,2.2916666666666665,0.85
488626,2.2944444444444443,0.83
488627,2.297222222222222,0.82
488628,2.3,0.81
488629,2.3027777777777776,0.82
488630,2.3055555555555554,0.815
488631,2.308333333333333,0.845
488632,2.311111111111111,0.84
488633,2.313888888888889,0.85
488634,2.316666666666667,0.84
488635,2.3194444444444446,0.815
488636,2.3222222222222224,0.81
488637,2.325,0.82
488638,2.327777777777778,0.815
488639,2.3305555555555557,0.815
488640,2.3333333333333335,0.81
488641,2.3361111111111112,0.81
488642,2.338888888888889,0.815
488643,2.341666666666667,0.82
488644,2.3444444444444446,0.82
488645,2.3472222222222223,0.82
488646,2.35,0.8
488647,2.352777777777778,0.8
488648,2.3555555555555556,0.785
488649,2.3583333333333334,0.8
488650,2.361111111111111,0.795
488651,2.363888888888889,0.79
488652,2.3666666666666667,0.795
488653,2.3694444444444445,0.805
488654,2.3722222222222222,0.815
488655,2.375,0.825
488656,2.3777777777777778,0.815
488657,2.3805555555555555,0.825
488658,2.3833333333333333,0.795
488659,2.386111111111111,0.785
488660,2.388888888888889,0.77
488661,2.3916666666666666,0.765
488662,2.3944444444444444,0.775
488663,2.397222222222222,0.77
488664,2.4,0.775
488665,2.4027777777777777,0.785
488666,2.4055555555555554,0.8
488667,2.408333333333333,0.805
488668,2.411111111111111,0.805
488669,2.4138888888888888,0.795
488670,2.4166666666666665,0.8
488671,2.4194444444444443,0.79
488672,2.422222222222222,0.765
488673,2.425,0.78
488674,2.4277777777777776,0.76
488675,2.4305555555555554,0.75
488676,2.433333333333333,0.77
488677,2.436111111111111,0.775
488678,2.438888888888889,0.785
488679,2.441666666666667,0.795
488680,2.4444444444444446,0.78
488681,2.4472222222222224,0.775
488682,2.45,0.78
488683,2.452777777777778,0.76
488684,2.4555555555555557,0.755
488685,2.4583333333333335,0.745
488686,2.4611111111111112,0.745
488687,2.463888888888889,0.73
488688,2.466666666666667,0.75
488689,2.4694444444444446,0.74
488690,2.4722222222222223,0.75
488691,2.475,0.77
488692,2.477777777777778,0.755
488693,2.4805555555555556,0.76
488694,2.4833333333333334,0.735
488695,2.486111111111111,0.725
488696,2.488888888888889,0.725
488697,2.4916666666666667,0.715
488698,2.4944444444444445,0.73
488699,2.4972222222222222,0.72
488700,2.5,0.735
488701,2.5027777777777778,0.735
488702,2.5055555555555555,0.745
488703,2.5083333333333333,0.755
488704,2.511111111111111,0.76
488705,2.513888888888889,0.745
488706,2.5166666666666666,0.73
488707,2.5194444444444444,0.725
488708,2.522222222222222,0.72
488709,2.525,0.715
488710,2.5277777777777777,0.7
488711,2.5305555555555554,0.685
488712,2.533333333333333,0.71
488713,2.536111111111111,0.705
488714,2.5388888888888888,0.7
488715,2.5416666666666665,0.71
488716,2.5444444444444443,0.71
488717,2.547222222222222,0.705
488718,2.55,0.715
488719,2.5527777777777776,0.71
488720,2.5555555555555554,0.705
488721,2.558333333333333,0.695
488722,2.561111111111111,0.68
488723,2.563888888888889,0.685
488724,2.566666666666667,0.695
488725,2.5694444444444446,0.695
488726,2.5722222222222224,0.685
488727,2.575,0.705
488728,2.577777777777778,0.705
488729,2.5805555555555557,0.695
488730,2.5833333333333335,0.695
488731,2.5861111111111112,0.675
488732,2.588888888888889,0.67
488733,2.591666666666667,0.665
488734,2.5944444444444446,0.65
488735,2.5972222222222223,0.655
488736,2.6,0.66
488737,2.602777777777778,0.68
488738,2.6055555555555556,0.675
488739,2.6083333333333334,0.68
488740,2.611111111111111,0.675
488741,2.613888888888889,0.68
488742,2.6166666666666667,0.66
488743,2.6194444444444445,0.66
488744,2.6222222222222222,0.645
488745,2.625,0.645
488746,2.6277777777777778,0.63
488747,2.6305555555555555,0.64
488748,2.6333333333333333,0.645
488749,2.636111111111111,0.635
488750,2.638888888888889,0.645
488751,2.6416666666666666,0.67
488752,2.6444444444444444,0.675
488753,2.647222222222222,0.665
488754,2.65,0.66
488755,2.6527777777777777,0.64
488756,2.6555555555555554,0.63
488757,2.658333333333333,0.63
488758,2.661111111111111,0.615
488759,2.6638888888888888,0.605
488760,2.6666666666666665,0.615
488761,2.6694444444444443,0.615
488762,2.672222222222222,0.625
488763,2.675,0.635
488764,2.6777777777777776,0.645
488765,2.6805555555555554,0.645
488766,2.683333333333333,0.63
488767,2.686111111111111,0.62
488768,2.688888888888889,0.605
488769,2.691666666666667,0.6
488770,2.6944444444444446,0.595
488771,2.6972222222222224,0.59
488772,2.7,0.575
488773,2.702777777777778,0.6
488774,2.7055555555555557,0.6
488775,2.7083333333333335,0.615
488776,2.7111111111111112,0.62
488777,2.713888888888889,0.61
488778,2.716666666666667,0.61
488779,2.7194444444444446,0.59
488780,2.7222222222222223,0.58
488781,2.725,0.57
488782,2.727777777777778,0.575
488783,2.7305555555555556,0.58
488784,2.7333333333333334,0.585
488785,2.736111111111111,0.59
488786,2.738888888888889,0.6
488787,2.7416666666666667,0.62
488788,2.7444444444444445,0.605
488789,2.7472222222222222,0.605
488790,2.75,0.605
488791,2.7527777777777778,0.585
488792,2.7555555555555555,0.57
488793,2.7583333333333333,0.57
488794,2.761111111111111,0.56
488795,2.763888888888889,0.545
488796,2.7666666666666666,0.56
488797,2.7694444444444444,0.585
488798,2.772222222222222,0.59
488799,2.775,0.58
488800,2.7777777777777777,0.6
488801,2.7805555555555554,0.59
488802,2.783333333333333,0.57
488803,2.786111111111111,0.555
488804,2.7888888888888888,0.53
488805,2.7916666666666665,0.54
488806,2.7944444444444443,0.53
488807,2.797222222222222,0.53
488808,2.8,0.535
488809,2.8027777777777776,0.55
488810,2.8055555555555554,0.54
488811,2.808333333333333,0.56
488812,2.811111111111111,0.565
488813,2.813888888888889,0.56
488814,2.816666666666667,0.55
488815,2.8194444444444446,0.535
488816,2.8222222222222224,0.515
488817,2.825,0.5
488818,2.827777777777778,0.495
488819,2.8305555555555557,0.505
488820,2.8333333333333335,0.505
488821,2.8361111111111112,0.52
488822,2.838888888888889,0.54
488823,2.841666666666667,0.555
488824,2.8444444444444446,0.555
488825,2.8472222222222223,0.56
488826,2.85,0.55
488827,2.852777777777778,0.535
488828,2.8555555555555556,0.525
488829,2.8583333333333334,0.51
488830,2.861111111111111,0.5
488831,2.863888888888889,0.51
488832,2.8666666666666667,0.51
488833,2.8694444444444445,0.515
488834,2.8722222222222222,0.52
488835,2.875,0.54
488836,2.8777777777777778,0.535
488837,2.8805555555555555,0.54
488838,2.8833333333333333,0.525
488839,2.886111111111111,0.525
488840,2.888888888888889,0.525
488841,2.8916666666666666,0.495
488842,2.8944444444444444,0.485
488843,2.897222222222222,0.49
488844,2.9,0.5
488845,2.9027777777777777,0.505
488846,2.9055555555555554,0.505
488847,2.908333333333333,0.505
488848,2.911111111111111,0.51
488849,2.9138888888888888,0.49
488850,2.9166666666666665,0.49
488851,2.9194444444444443,0.49
488852,2.922222222222222,0.48
488853,2.925,0.47
488854,2.9277777777777776,0.49
488855,2.9305555555555554,0.47
488856,2.933333333333333,0.48
488857,2.936111111111111,0.49
488858,2.938888888888889,0.5
488859,2.941666666666667,0.51
488860,2.9444444444444446,0.505
488861,2.9472222222222224,0.51
488862,2.95,0.5
488863,2.952777777777778,0.505
488864,2.9555555555555557,0.49
488865,2.9583333333333335,0.48
488866,2.9611111111111112,0.475
488867,2.963888888888889,0.465
488868,2.966666666666667,0.475
488869,2.9694444444444446,0.48
488870,2.9722222222222223,0.495
488871,2.975,0.485
488872,2.977777777777778,0.495
488873,2.9805555555555556,0.47
488874,2.9833333333333334,0.475
488875,2.986111111111111,0.47
488876,2.988888888888889,0.46
488877,2.9916666666666667,0.45
488878,2.9944444444444445,0.45
488879,2.9972222222222222,0.45
488880,3.0,0.45
488881,3.0027777777777778,0.455
488882,3.0055555555555555,0.46
488883,3.0083333333333333,0.465
488884,3.011111111111111,0.475
488885,3.013888888888889,0.465
488886,3.0166666666666666,0.47
488887,3.0194444444444444,0.46
488888,3.022222222222222,0.465
488889,3.025,0.435
488890,3.0277777777777777,0.42
488891,3.0305555555555554,0.41
488892,3.033333333333333,0.45
488893,3.036111111111111,0.44
488894,3.0388888888888888,0.455
488895,3.0416666666666665,0.465
488896,3.0444444444444443,0.475
488897,3.047222222222222,0.465
488898,3.05,0.465
488899,3.0527777777777776,0.435
488900,3.0555555555555554,0.415
488901,3.058333333333333,0.42
488902,3.061111111111111,0.4
488903,3.063888888888889,0.41
488904,3.066666666666667,0.42
488905,3.0694444444444446,0.435
488906,3.0722222222222224,0.43
488907,3.075,0.445
488908,3.077777777777778,0.435
488909,3.0805555555555557,0.44
488910,3.0833333333333335,0.44
488911,3.0861111111111112,0.42
488912,3.088888888888889,0.415
488913,3.091666666666667,0.41
488914,3.0944444444444446,0.39
488915,3.0972222222222223,0.395
488916,3.1,0.39
488917,3.102777777777778,0.41
488918,3.1055555555555556,0.42
488919,3.1083333333333334,0.425
488920,3.111111111111111,0.43
488921,3.113888888888889,0.41
488922,3.1166666666666667,0.415
488923,3.1194444444444445,0.4
488924,3.1222222222222222,0.39
488925,3.125,0.385
488926,3.1277777777777778,0.38
488927,3.1305555555555555,0.37
488928,3.1333333333333333,0.37
488929,3.136111111111111,0.375
488930,3.138888888888889,0.385
488931,3.1416666666666666,0.39
488932,3.1444444444444444,0.405
488933,3.147222222222222,0.41
488934,3.15,0.41
488935,3.1527777777777777,0.39
488936,3.1555555555555554,0.395
488937,3.158333333333333,0.38
488938,3.161111111111111,0.375
488939,3.1638888888888888,0.365
488940,3.1666666666666665,0.39
488941,3.1694444444444443,0.385
488942,3.172222222222222,0.395
488943,3.175,0.395
488944,3.1777777777777776,0.4
488945,3.1805555555555554,0.41
488946,3.183333333333333,0.41
488947,3.186111111111111,0.385
488948,3.188888888888889,0.395
488949,3.191666666666667,0.38
488950,3.1944444444444446,0.375
488951,3.1972222222222224,0.37
488952,3.2,0.37
488953,3.202777777777778,0.38
488954,3.2055555555555557,0.38
488955,3.2083333333333335,0.39
488956,3.2111111111111112,0.39
488957,3.213888888888889,0.385
488958,3.216666666666667,0.385
488959,3.2194444444444446,0.375
488960,3.2222222222222223,0.355
488961,3.225,0.355
488962,3.227777777777778,0.34
488963,3.2305555555555556,0.345
488964,3.2333333333333334,0.34
488965,3.236111111111111,0.35
488966,3.238888888888889,0.36
488967,3.2416666666666667,0.37
488968,3.2444444444444445,0.375
488969,3.2472222222222222,0.38
488970,3.25,0.35
488971,3.2527777777777778,0.345
488972,3.2555555555555555,0.34
488973,3.2583333333333333,0.34
488974,3.261111111111111,0.33
488975,3.263888888888889,0.32
488976,3.2666666666666666,0.325
488977,3.2694444444444444,0.335
488978,3.272222222222222,0.34
488979,3.275,0.355
488980,3.2777777777777777,0.345
488981,3.2805555555555554,0.355
488982,3.283333333333333,0.34
488983,3.286111111111111,0.345
488984,3.2888888888888888,0.32
488985,3.2916666666666665,0.315
488986,3.2944444444444443,0.315
488987,3.297222222222222,0.305
488988,3.3,0.31
488989,3.3027777777777776,0.31
488990,3.3055555555555554,0.32
488991,3.308333333333333,0.33
488992,3.311111111111111,0.345
488993,3.313888888888889,0.34
488994,3.316666666666667,0.34
488995,3.3194444444444446,0.33
488996,3.3222222222222224,0.325
488997,3.325,0.32
488998,3.327777777777778,0.29
488999,3.3305555555555557,0.295
489000,3.3333333333333335,0.295
489001,3.3361111111111112,0.31
489002,3.338888888888889,0.305
489003,3.341666666666667,0.32
489004,3.3444444444444446,0.325
489005,3.3472222222222223,0.32
489006,3.35,0.305
489007,3.352777777777778,0.275
489008,3.3555555555555556,0.295
489009,3.3583333333333334,0.29
489010,3.361111111111111,0.26
489011,3.363888888888889,0.26
489012,3.3666666666666667,0.28
489013,3.3694444444444445,0.285
489014,3.3722222222222222,0.305
489015,3.375,0.32
489016,3.3777777777777778,0.325
489017,3.3805555555555555,0.32
489018,3.3833333333333333,0.305
489019,3.386111111111111,0.31
489020,3.388888888888889,0.295
489021,3.3916666666666666,0.275
489022,3.3944444444444444,0.29
489023,3.397222222222222,0.28
489024,3.4,0.275
489025,3.4027777777777777,0.29
489026,3.4055555555555554,0.29
489027,3.408333333333333,0.295
489028,3.411111111111111,0.31
489029,3.4138888888888888,0.3
489030,3.4166666666666665,0.3
489031,3.4194444444444443,0.275
489032,3.422222222222222,0.27
489033,3.425,0.245
489034,3.4277777777777776,0.26
489035,3.4305555555555554,0.26
489036,3.433333333333333,0.27
489037,3.436111111111111,0.27
489038,3.438888888888889,0.275
489039,3.441666666666667,0.29
489040,3.4444444444444446,0.28
489041,3.4472222222222224,0.28
489042,3.45,0.29
489043,3.452777777777778,0.26
489044,3.4555555555555557,0.26
489045,3.4583333333333335,0.24
489046,3.4611111111111112,0.235
489047,3.463888888888889,0.245
489048,3.466666666666667,0.25
489049,3.4694444444444446,0.26
489050,3.4722222222222223,0.275
489051,3.475,0.285
489052,3.477777777777778,0.285
489053,3.4805555555555556,0.285
489054,3.4833333333333334,0.285
489055,3.486111111111111,0.275
489056,3.488888888888889,0.27
489057,3.4916666666666667,0.25
489058,3.4944444444444445,0.255
489059,3.4972222222222222,0.26
489060,3.5,0.255
489061,3.5027777777777778,0.26
489062,3.5055555555555555,0.275
489063,3.5083333333333333,0.295
489064,3.511111111111111,0.295
489065,3.513888888888889,0.285
489066,3.5166666666666666,0.29
489067,3.5194444444444444,0.28
489068,3.522222222222222,0.265
489069,3.525,0.255
489070,3.5277777777777777,0.255
489071,3.5305555555555554,0.255
489072,3.533333333333333,0.26
489073,3.536111111111111,0.27
489074,3.5388888888888888,0.27
489075,3.5416666666666665,0.27
489076,3.5444444444444443,0.28
489077,3.547222222222222,0.27
489078,3.55,0.265
489079,3.5527777777777776,0.265
489080,3.5555555555555554,0.25
489081,3.558333333333333,0.245
489082,3.561111111111111,0.23
489083,3.563888888888889,0.23
489084,3.566666666666667,0.235
489085,3.5694444444444446,0.25
489086,3.5722222222222224,0.245
489087,3.575,0.245
489088,3.577777777777778,0.255
489089,3.5805555555555557,0.245
489090,3.5833333333333335,0.23
489091,3.5861111111111112,0.22
489092,3.588888888888889,0.235
489093,3.591666666666667,0.215
489094,3.5944444444444446,0.22
489095,3.5972222222222223,0.225
489096,3.6,0.24
489097,3.602777777777778,0.24
489098,3.6055555555555556,0.235
489099,3.6083333333333334,0.25
489100,3.611111111111111,0.27
489101,3.613888888888889,0.255
489102,3.6166666666666667,0.25
489103,3.6194444444444445,0.24
489104,3.6222222222222222,0.24
489105,3.625,0.23
489106,3.6277777777777778,0.2
489107,3.6305555555555555,0.19
489108,3.6333333333333333,0.215
489109,3.636111111111111,0.215
489110,3.638888888888889,0.22
489111,3.6416666666666666,0.225
489112,3.6444444444444444,0.235
489113,3.647222222222222,0.23
489114,3.65,0.23
489115,3.6527777777777777,0.225
489116,3.6555555555555554,0.2
489117,3.658333333333333,0.22
489118,3.661111111111111,0.19
489119,3.6638888888888888,0.205
489120,3.6666666666666665,0.215
489121,3.6694444444444443,0.225
489122,3.672222222222222,0.22
489123,3.675,0.24
489124,3.6777777777777776,0.245
489125,3.6805555555555554,0.235
489126,3.683333333333333,0.22
489127,3.686111111111111,0.21
489128,3.688888888888889,0.195
489129,3.691666666666667,0.2
489130,3.6944444444444446,0.185
489131,3.6972222222222224,0.185
489132,3.7,0.21
489133,3.702777777777778,0.21
489134,3.7055555555555557,0.215
489135,3.7083333333333335,0.24
489136,3.7111111111111112,0.235
489137,3.713888888888889,0.23
489138,3.716666666666667,0.23
489139,3.7194444444444446,0.22
489140,3.7222222222222223,0.215
489141,3.725,0.19
489142,3.727777777777778,0.195
489143,3.7305555555555556,0.195
489144,3.7333333333333334,0.19
489145,3.736111111111111,0.205
489146,3.738888888888889,0.2
489147,3.7416666666666667,0.205
489148,3.7444444444444445,0.225
489149,3.7472222222222222,0.23
489150,3.75,0.22
489151,3.7527777777777778,0.215
489152,3.7555555555555555,0.19
489153,3.7583333333333333,0.19
489154,3.761111111111111,0.17
489155,3.763888888888889,0.19
489156,3.7666666666666666,0.195
489157,3.7694444444444444,0.21
489158,3.772222222222222,0.215
489159,3.775,0.195
489160,3.7777777777777777,0.215
489161,3.7805555555555554,0.21
489162,3.783333333333333,0.21
489163,3.786111111111111,0.195
489164,3.7888888888888888,0.195
489165,3.7916666666666665,0.18
489166,3.7944444444444443,0.175
489167,3.797222222222222,0.18
489168,3.8,0.19
489169,3.8027777777777776,0.205
489170,3.8055555555555554,0.21
489171,3.808333333333333,0.22
489172,3.811111111111111,0.22
489173,3.813888888888889,0.215
489174,3.816666666666667,0.215
489175,3.8194444444444446,0.21
489176,3.8222222222222224,0.195
489177,3.825,0.185
489178,3.827777777777778,0.175
489179,3.8305555555555557,0.175
489180,3.8333333333333335,0.175
489181,3.8361111111111112,0.175
489182,3.838888888888889,0.18
489183,3.841666666666667,0.2
489184,3.8444444444444446,0.2
489185,3.8472222222222223,0.19
489186,3.85,0.195
489187,3.852777777777778,0.17
489188,3.8555555555555556,0.17
489189,3.8583333333333334,0.155
489190,3.861111111111111,0.155
489191,3.863888888888889,0.15
489192,3.8666666666666667,0.155
489193,3.8694444444444445,0.155
489194,3.8722222222222222,0.16
489195,3.875,0.175
489196,3.8777777777777778,0.175
489197,3.8805555555555555,0.165
489198,3.8833333333333333,0.16
489199,3.886111111111111,0.145
489200,3.888888888888889,0.14
489201,3.8916666666666666,0.15
489202,3.8944444444444444,0.15
489203,3.897222222222222,0.15
489204,3.9,0.155
489205,3.9027777777777777,0.165
489206,3.9055555555555554,0.17
489207,3.908333333333333,0.18
489208,3.911111111111111,0.175
489209,3.9138888888888888,0.175
489210,3.9166666666666665,0.165
489211,3.9194444444444443,0.15
489212,3.922222222222222,0.145
489213,3.925,0.135
489214,3.9277777777777776,0.15
489215,3.9305555555555554,0.155
489216,3.933333333333333,0.145
489217,3.936111111111111,0.16
489218,3.938888888888889,0.155
489219,3.941666666666667,0.165
489220,3.9444444444444446,0.17
489221,3.9472222222222224,0.165
489222,3.95,0.16
489223,3.952777777777778,0.15
489224,3.9555555555555557,0.115
489225,3.9583333333333335,0.115
489226,3.9611111111111112,0.12
489227,3.963888888888889,0.12
489228,3.966666666666667,0.11
489229,3.9694444444444446,0.11
489230,3.9722222222222223,0.11
489231,3.975,0.125
489232,3.977777777777778,0.14
489233,3.9805555555555556,0.145
489234,3.9833333333333334,0.15
489235,3.986111111111111,0.13
489236,3.988888888888889,0.14
489237,3.9916666666666667,0.13
489238,3.9944444444444445,0.13
489239,3.9972222222222222,0.11
489240,4.0,0.12
489241,4.002777777777778,0.14
489242,4.0055555555555555,0.13
489243,4.008333333333334,0.145
489244,4.011111111111111,0.15
489245,4.013888888888889,0.165
489246,4.016666666666667,0.135
489247,4.019444444444445,0.11
489248,4.022222222222222,0.12
489249,4.025,0.105
489250,4.027777777777778,0.12
489251,4.030555555555556,0.115
489252,4.033333333333333,0.11
489253,4.036111111111111,0.125
489254,4.038888888888889,0.135
489255,4.041666666666667,0.145
489256,4.044444444444444,0.145
489257,4.0472222222222225,0.145
489258,4.05,0.15
489259,4.052777777777778,0.14
489260,4.055555555555555,0.13
489261,4.058333333333334,0.12
489262,4.061111111111111,0.115
489263,4.063888888888889,0.11
489264,4.066666666666666,0.11
489265,4.069444444444445,0.12
489266,4.072222222222222,0.135
489267,4.075,0.145
489268,4.0777777777777775,0.15
489269,4.080555555555556,0.15
489270,4.083333333333333,0.135
489271,4.086111111111111,0.125
489272,4.088888888888889,0.11
489273,4.091666666666667,0.105
489274,4.094444444444444,0.1
489275,4.097222222222222,0.095
489276,4.1,0.095
489277,4.102777777777778,0.105
489278,4.105555555555555,0.125
489279,4.108333333333333,0.12
489280,4.111111111111111,0.135
489281,4.113888888888889,0.13
489282,4.116666666666666,0.13
489283,4.1194444444444445,0.12
489284,4.122222222222222,0.105
489285,4.125,0.105
489286,4.127777777777778,0.115
489287,4.1305555555555555,0.105
489288,4.133333333333334,0.11
489289,4.136111111111111,0.115
489290,4.138888888888889,0.115
489291,4.141666666666667,0.135
489292,4.144444444444445,0.14
489293,4.147222222222222,0.135
489294,4.15,0.125
489295,4.152777777777778,0.12
489296,4.155555555555556,0.115
489297,4.158333333333333,0.12
489298,4.161111111111111,0.105
489299,4.163888888888889,0.095
489300,4.166666666666667,0.095
489301,4.169444444444444,0.11
489302,4.1722222222222225,0.11
489303,4.175,0.13
489304,4.177777777777778,0.125
489305,4.180555555555555,0.125
489306,4.183333333333334,0.13
489307,4.186111111111111,0.115
489308,4.188888888888889,0.095
489309,4.191666666666666,0.1
489310,4.194444444444445,0.095
489311,4.197222222222222,0.095
489312,4.2,0.095
489313,4.2027777777777775,0.1
489314,4.205555555555556,0.1
489315,4.208333333333333,0.105
489316,4.211111111111111,0.125
489317,4.213888888888889,0.125
489318,4.216666666666667,0.12
489319,4.219444444444444,0.12
489320,4.222222222222222,0.11
489321,4.225,0.1
489322,4.227777777777778,0.09
489323,4.230555555555555,0.085
489324,4.233333333333333,0.085
489325,4.236111111111111,0.1
489326,4.238888888888889,0.085
489327,4.241666666666666,0.11
489328,4.2444444444444445,0.125
489329,4.247222222222222,0.135
489330,4.25,0.12
489331,4.252777777777778,0.1
489332,4.2555555555555555,0.095
489333,4.258333333333334,0.09
489334,4.261111111111111,0.095
489335,4.263888888888889,0.09
489336,4.266666666666667,0.095
489337,4.269444444444445,0.095
489338,4.272222222222222,0.1
489339,4.275,0.105
489340,4.277777777777778,0.12
489341,4.280555555555556,0.125
489342,4.283333333333333,0.115
489343,4.286111111111111,0.105
489344,4.288888888888889,0.085
489345,4.291666666666667,0.08
489346,4.294444444444444,0.065
489347,4.2972222222222225,0.06
489348,4.3,0.065
489349,4.302777777777778,0.07
489350,4.305555555555555,0.075
489351,4.308333333333334,0.09
489352,4.311111111111111,0.09
489353,4.313888888888889,0.09
489354,4.316666666666666,0.09
489355,4.319444444444445,0.08
489356,4.322222222222222,0.07
489357,4.325,0.065
489358,4.3277777777777775,0.07
489359,4.330555555555556,0.07
489360,4.333333333333333,0.07
489361,4.336111111111111,0.09
489362,4.338888888888889,0.09
489363,4.341666666666667,0.095
489364,4.344444444444444,0.105
489365,4.347222222222222,0.1
489366,4.35,0.085
489367,4.352777777777778,0.065
489368,4.355555555555555,0.06
489369,4.358333333333333,0.05
489370,4.361111111111111,0.055
489371,4.363888888888889,0.06
489372,4.366666666666666,0.07
489373,4.3694444444444445,0.07
489374,4.372222222222222,0.065
489375,4.375,0.08
489376,4.377777777777778,0.08
489377,4.3805555555555555,0.08
489378,4.383333333333334,0.07
489379,4.386111111111111,0.07
489380,4.388888888888889,0.06
489381,4.391666666666667,0.055
489382,4.394444444444445,0.05
489383,4.397222222222222,0.055
489384,4.4,0.05
489385,4.402777777777778,0.07
489386,4.405555555555556,0.07
489387,4.408333333333333,0.08
489388,4.411111111111111,0.08
489389,4.413888888888889,0.075
489390,4.416666666666667,0.075
489391,4.419444444444444,0.065
489392,4.4222222222222225,0.055
489393,4.425,0.05
489394,4.427777777777778,0.06
489395,4.430555555555555,0.045
489396,4.433333333333334,0.06
489397,4.436111111111111,0.075
489398,4.438888888888889,0.08
489399,4.441666666666666,0.095
489400,4.444444444444445,0.095
489401,4.447222222222222,0.095
489402,4.45,0.08
489403,4.4527777777777775,0.095
489404,4.455555555555556,0.065
489405,4.458333333333333,0.05
489406,4.461111111111111,0.055
489407,4.463888888888889,0.05
489408,4.466666666666667,0.075
489409,4.469444444444444,0.08
489410,4.472222222222222,0.09
489411,4.475,0.09
489412,4.477777777777778,0.09
489413,4.480555555555555,0.1
489414,4.483333333333333,0.1
489415,4.486111111111111,0.09
489416,4.488888888888889,0.085
489417,4.491666666666666,0.07
489418,4.4944444444444445,0.075
489419,4.497222222222222,0.07
489420,4.5,0.07
489421,4.502777777777778,0.06
489422,4.5055555555555555,0.065
489423,4.508333333333334,0.09
489424,4.511111111111111,0.09
489425,4.513888888888889,0.095
489426,4.516666666666667,0.085
489427,4.519444444444445,0.085
489428,4.522222222222222,0.075
489429,4.525,0.075
489430,4.527777777777778,0.065
489431,4.530555555555556,0.055
489432,4.533333333333333,0.07
489433,4.536111111111111,0.06
489434,4.538888888888889,0.065
489435,4.541666666666667,0.08
489436,4.544444444444444,0.085
489437,4.5472222222222225,0.105
489438,4.55,0.09
489439,4.552777777777778,0.07
489440,4.555555555555555,0.07
489441,4.558333333333334,0.065
489442,4.561111111111111,0.045
489443,4.563888888888889,0.06
489444,4.566666666666666,0.055
489445,4.569444444444445,0.05
489446,4.572222222222222,0.06
489447,4.575,0.045
489448,4.5777777777777775,0.045
489449,4.580555555555556,0.055
489450,4.583333333333333,0.055
489451,4.586111111111111,0.055
489452,4.588888888888889,0.04
489453,4.591666666666667,0.035
489454,4.594444444444444,0.03
489455,4.597222222222222,0.03
489456,4.6,0.035
489457,4.602777777777778,0.03
489458,4.605555555555555,0.035
489459,4.608333333333333,0.03
489460,4.611111111111111,0.05
489461,4.613888888888889,0.035
489462,4.616666666666666,0.02
489463,4.6194444444444445,0.02
489464,4.622222222222222,0.015
489465,4.625,0.02
489466,4.627777777777778,0.01
489467,4.6305555555555555,0.04
489468,4.633333333333334,0.035
489469,4.636111111111111,0.035
489470,4.638888888888889,0.05
489471,4.641666666666667,0.06
489472,4.644444444444445,0.06
489473,4.647222222222222,0.055
489474,4.65,0.06
489475,4.652777777777778,0.055
489476,4.655555555555556,0.045
489477,4.658333333333333,0.045
489478,4.661111111111111,0.05
489479,4.663888888888889,0.035
489480,4.666666666666667,0.04
489481,4.669444444444444,0.055
489482,4.6722222222222225,0.06
489483,4.675,0.075
489484,4.677777777777778,0.075
489485,4.680555555555555,0.075
489486,4.683333333333334,0.07
489487,4.686111111111111,0.06
489488,4.688888888888889,0.065
489489,4.691666666666666,0.025
489490,4.694444444444445,0.025
489491,4.697222222222222,0.02
489492,4.7,0.03
489493,4.7027777777777775,0.055
489494,4.705555555555556,0.05
489495,4.708333333333333,0.055
489496,4.711111111111111,0.075
489497,4.713888888888889,0.065
489498,4.716666666666667,0.075
489499,4.719444444444444,0.06
489500,4.722222222222222,0.045
489501,4.725,0.04
489502,4.727777777777778,0.035
489503,4.730555555555555,0.03
489504,4.733333333333333,0.03
489505,4.736111111111111,0.035
489506,4.738888888888889,0.045
489507,4.741666666666666,0.045
489508,4.7444444444444445,0.055
489509,4.747222222222222,0.045
489510,4.75,0.035
489511,4.752777777777778,0.03
489512,4.7555555555555555,0.035
489513,4.758333333333334,0.025
489514,4.761111111111111,0.005
489515,4.763888888888889,0.015
489516,4.766666666666667,0.015
489517,4.769444444444445,0.02
489518,4.772222222222222,0.045
489519,4.775,0.065
489520,4.777777777777778,0.04
489521,4.780555555555556,0.045
489522,4.783333333333333,0.03
489523,4.786111111111111,0.035
489524,4.788888888888889,0.035
489525,4.791666666666667,0.02
489526,4.794444444444444,0.02
489527,4.7972222222222225,0.025
489528,4.8,0.02
489529,4.802777777777778,0.035
489530,4.805555555555555,0.035
489531,4.808333333333334,0.03
489532,4.811111111111111,0.035
489533,4.813888888888889,0.05
489534,4.816666666666666,0.04
489535,4.819444444444445,0.04
489536,4.822222222222222,0.04
489537,4.825,0.035
489538,4.8277777777777775,0.02
489539,4.830555555555556,0.01
489540,4.833333333333333,0.02
489541,4.836111111111111,0.025
489542,4.838888888888889,0.035
489543,4.841666666666667,0.045
489544,4.844444444444444,0.04
489545,4.847222222222222,0.06
489546,4.85,0.05
489547,4.852777777777778,0.035
489548,4.855555555555555,0.025
489549,4.858333333333333,0.01
489550,4.861111111111111,0.005
489551,4.863888888888889,0.01
489552,4.866666666666666,0.015
489553,4.8694444444444445,0.025
489554,4.872222222222222,0.035
489555,4.875,0.035
489556,4.877777777777778,0.06
489557,4.8805555555555555,0.03
489558,4.883333333333334,0.04
489559,4.886111111111111,0.04
489560,4.888888888888889,0.045
489561,4.891666666666667,0.02
489562,4.894444444444445,0.015
489563,4.897222222222222,0.025
489564,4.9,0.0
489565,4.902777777777778,0.02
489566,4.905555555555556,0.025
489567,4.908333333333333,0.035
489568,4.911111111111111,0.04
489569,4.913888888888889,0.035
489570,4.916666666666667,0.03
489571,4.919444444444444,0.02
489572,4.9222222222222225,0.02
489573,4.925,0.02
489574,4.927777777777778,0.0
489575,4.930555555555555,0.005
489576,4.933333333333334,0.005
489577,4.936111111111111,0.01
489578,4.938888888888889,0.01
489579,4.941666666666666,0.035
489580,4.944444444444445,0.04
489581,4.947222222222222,0.05
489582,4.95,0.045
489583,4.9527777777777775,0.04
489584,4.955555555555556,0.02
489585,4.958333333333333,0.025
489586,4.961111111111111,0.035
489587,4.963888888888889,0.02
489588,4.966666666666667,0.02
489589,4.969444444444444,0.025
489590,4.972222222222222,0.03
489591,4.975,0.04
489592,4.977777777777778,0.05
489593,4.980555555555555,0.035
489594,4.983333333333333,0.03
489595,4.986111111111111,0.03
489596,4.988888888888889,0.035
489597,4.991666666666666,0.02
489598,4.9944444444444445,0.015
489599,4.997222222222222,0.02
489600,5.0,0.03
489601,5.002777777777778,0.03
489602,5.0055555555555555,0.035
489603,5.008333333333334,0.03
489604,5.011111111111111,0.05
489605,5.013888888888889,0.05
489606,5.016666666666667,0.055
489607,5.019444444444445,0.05
489608,5.022222222222222,0.045
489609,5.025,0.025
489610,5.027777777777778,0.035
489611,5.030555555555556,0.01
489612,5.033333333333333,0.01
489613,5.036111111111111,0.015
489614,5.038888888888889,0.01
489615,5.041666666666667,0.01
489616,5.044444444444444,0.04
489617,5.0472222222222225,0.025
489618,5.05,0.025
489619,5.052777777777778,0.02
489620,5.055555555555555,0.0
489621,5.058333333333334,-0.005
489622,5.061111111111111,-0.005
489623,5.063888888888889,0.005
489624,5.066666666666666,0.015
489625,5.069444444444445,0.02
489626,5.072222222222222,0.04
489627,5.075,0.05
489628,5.0777777777777775,0.065
489629,5.080555555555556,0.065
489630,5.083333333333333,0.055
489631,5.086111111111111,0.045
489632,5.088888888888889,0.04
489633,5.091666666666667,0.03
489634,5.094444444444444,0.03
489635,5.097222222222222,0.025
489636,5.1,0.01
489637,5.102777777777778,0.025
489638,5.105555555555555,0.05
489639,5.108333333333333,0.04
489640,5.111111111111111,0.04
489641,5.113888888888889,0.05
489642,5.116666666666666,0.045
489643,5.1194444444444445,0.035
489644,5.122222222222222,0.025
489645,5.125,0.02
489646,5.127777777777778,0.01
489647,5.1305555555555555,0.015
489648,5.133333333333334,0.01
489649,5.136111111111111,0.01
489650,5.138888888888889,0.04
489651,5.141666666666667,0.04
489652,5.144444444444445,0.045
489653,5.147222222222222,0.045
489654,5.15,0.05
489655,5.152777777777778,0.035
489656,5.155555555555556,0.02
489657,5.158333333333333,0.025
489658,5.161111111111111,0.025
489659,5.163888888888889,0.015
489660,5.166666666666667,0.015
489661,5.169444444444444,0.015
489662,5.1722222222222225,0.025
489663,5.175,0.05
489664,5.177777777777778,0.07
489665,5.180555555555555,0.06
489666,5.183333333333334,0.04
489667,5.186111111111111,0.03
489668,5.188888888888889,0.03
489669,5.191666666666666,0.015
489670,5.194444444444445,0.015
489671,5.197222222222222,0.005
489672,5.2,0.035
489673,5.2027777777777775,0.03
489674,5.205555555555556,0.04
489675,5.208333333333333,0.045
489676,5.211111111111111,0.06
489677,5.213888888888889,0.07
489678,5.216666666666667,0.055
489679,5.219444444444444,0.04
489680,5.222222222222222,0.04
489681,5.225,0.035
489682,5.227777777777778,0.02
489683,5.230555555555555,0.03
489684,5.233333333333333,0.03
489685,5.236111111111111,0.04
489686,5.238888888888889,0.055
489687,5.241666666666666,0.035
489688,5.2444444444444445,0.065
489689,5.247222222222222,0.06
489690,5.25,0.06
489691,5.252777777777778,0.055
489692,5.2555555555555555,0.045
489693,5.258333333333334,0.04
489694,5.261111111111111,0.035
489695,5.263888888888889,0.04
489696,5.266666666666667,0.035
489697,5.269444444444445,0.03
489698,5.272222222222222,0.04
489699,5.275,0.04
489700,5.277777777777778,0.055
489701,5.280555555555556,0.055
489702,5.283333333333333,0.05
489703,5.286111111111111,0.025
489704,5.288888888888889,0.025
489705,5.291666666666667,0.025
489706,5.294444444444444,0.035
489707,5.2972222222222225,0.02
489708,5.3,0.025
489709,5.302777777777778,0.025
489710,5.305555555555555,0.045
489711,5.308333333333334,0.045
489712,5.311111111111111,0.05
489713,5.313888888888889,0.07
489714,5.316666666666666,0.055
489715,5.319444444444445,0.045
489716,5.322222222222222,0.04
489717,5.325,0.02
489718,5.3277777777777775,0.01
489719,5.330555555555556,0.015
489720,5.333333333333333,0.015
489721,5.336111111111111,0.035
489722,5.338888888888889,0.045
489723,5.341666666666667,0.05
489724,5.344444444444444,0.05
489725,5.347222222222222,0.06
489726,5.35,0.04
489727,5.352777777777778,0.025
489728,5.355555555555555,-0.03
489729,5.358333333333333,-0.065
489730,5.361111111111111,-0.09
489731,5.363888888888889,-0.075
489732,5.366666666666666,-0.05
489733,5.3694444444444445,-0.005
489734,5.372222222222222,0.04
489735,5.375,0.07
489736,5.377777777777778,0.09
489737,5.3805555555555555,0.055
489738,5.383333333333334,0.06
489739,5.386111111111111,0.055
489740,5.388888888888889,0.04
489741,5.391666666666667,0.03
489742,5.394444444444445,0.035
489743,5.397222222222222,0.035
489744,5.4,0.035
489745,5.402777777777778,0.04
489746,5.405555555555556,0.06
489747,5.408333333333333,0.06
489748,5.411111111111111,0.07
489749,5.413888888888889,0.07
489750,5.416666666666667,0.08
489751,5.419444444444444,0.05
489752,5.4222222222222225,0.04
489753,5.425,0.055
489754,5.427777777777778,0.04
489755,5.430555555555555,0.045
489756,5.433333333333334,0.05
489757,5.436111111111111,0.055
489758,5.438888888888889,0.07
489759,5.441666666666666,0.085
489760,5.444444444444445,0.075
489761,5.447222222222222,0.075
489762,5.45,0.075
489763,5.4527777777777775,0.08
489764,5.455555555555556,0.06
489765,5.458333333333333,0.055
489766,5.461111111111111,0.035
489767,5.463888888888889,0.05
489768,5.466666666666667,0.055
489769,5.469444444444444,0.045
489770,5.472222222222222,0.05
489771,5.475,0.05
489772,5.477777777777778,0.075
489773,5.480555555555555,0.08
489774,5.483333333333333,0.08
489775,5.486111111111111,0.06
489776,5.488888888888889,0.075
489777,5.491666666666666,0.055
489778,5.4944444444444445,0.04
489779,5.497222222222222,0.045
489780,5.5,0.045
489781,5.502777777777778,0.045
489782,5.5055555555555555,0.05
489783,5.508333333333334,0.08
489784,5.511111111111111,0.08
489785,5.513888888888889,0.075
489786,5.516666666666667,0.075
489787,5.519444444444445,0.05
489788,5.522222222222222,0.055
489789,5.525,0.055
489790,5.527777777777778,0.04
489791,5.530555555555556,0.055
489792,5.533333333333333,0.07
489793,5.536111111111111,0.055
489794,5.538888888888889,0.075
489795,5.541666666666667,0.075
489796,5.544444444444444,0.07
489797,5.5472222222222225,0.075
489798,5.55,0.085
489799,5.552777777777778,0.09
489800,5.555555555555555,0.075
489801,5.558333333333334,0.07
489802,5.561111111111111,0.07
489803,5.563888888888889,0.06
489804,5.566666666666666,0.06
489805,5.569444444444445,0.08
489806,5.572222222222222,0.075
489807,5.575,0.075
489808,5.5777777777777775,0.105
489809,5.580555555555556,0.085
489810,5.583333333333333,0.095
489811,5.586111111111111,0.09
489812,5.588888888888889,0.07
489813,5.591666666666667,0.06
489814,5.594444444444444,0.06
489815,5.597222222222222,0.06
489816,5.6,0.055
489817,5.602777777777778,0.065
489818,5.605555555555555,0.065
489819,5.608333333333333,0.07
489820,5.611111111111111,0.055
489821,5.613888888888889,0.055
489822,5.616666666666666,0.055
489823,5.6194444444444445,0.055
489824,5.622222222222222,0.04
489825,5.625,0.04
489826,5.627777777777778,0.03
489827,5.6305555555555555,0.045
489828,5.633333333333334,0.035
489829,5.636111111111111,0.055
489830,5.638888888888889,0.06
489831,5.641666666666667,0.055
489832,5.644444444444445,0.075
489833,5.647222222222222,0.085
489834,5.65,0.075
489835,5.652777777777778,0.065
489836,5.655555555555556,0.055
489837,5.658333333333333,0.05
489838,5.661111111111111,0.05
489839,5.663888888888889,0.04
489840,5.666666666666667,0.04
489841,5.669444444444444,0.055
489842,5.6722222222222225,0.06
489843,5.675,0.07
489844,5.677777777777778,0.085
489845,5.680555555555555,0.085
489846,5.683333333333334,0.08
489847,5.686111111111111,0.075
489848,5.688888888888889,0.045
489849,5.691666666666666,0.05
489850,5.694444444444445,0.05
489851,5.697222222222222,0.055
489852,5.7,0.05
489853,5.7027777777777775,0.055
489854,5.705555555555556,0.065
489855,5.708333333333333,0.075
489856,5.711111111111111,0.095
489857,5.713888888888889,0.09
489858,5.716666666666667,0.07
489859,5.719444444444444,0.05
489860,5.722222222222222,0.035
489861,5.725,0.055
489862,5.727777777777778,0.045
489863,5.730555555555555,0.055
489864,5.733333333333333,0.045
489865,5.736111111111111,0.05
489866,5.738888888888889,0.05
489867,5.741666666666666,0.075
489868,5.7444444444444445,0.085
489869,5.747222222222222,0.085
489870,5.75,0.075
489871,5.752777777777778,0.065
489872,5.7555555555555555,0.045
489873,5.758333333333334,0.035
489874,5.761111111111111,0.025
489875,5.763888888888889,0.015
489876,5.766666666666667,0.015
489877,5.769444444444445,0.03
489878,5.772222222222222,0.03
489879,5.775,0.035
489880,5.777777777777778,0.045
489881,5.780555555555556,0.065
489882,5.783333333333333,0.065
489883,5.786111111111111,0.055
489884,5.788888888888889,0.05
489885,5.791666666666667,0.045
489886,5.794444444444444,0.055
489887,5.7972222222222225,0.05
489888,5.8,0.045
489889,5.802777777777778,0.045
489890,5.805555555555555,0.06
489891,5.808333333333334,0.075
489892,5.811111111111111,0.075
489893,5.813888888888889,0.085
489894,5.816666666666666,0.065
489895,5.819444444444445,0.055
489896,5.822222222222222,0.06
489897,5.825,0.04
489898,5.8277777777777775,0.035
489899,5.830555555555556,0.04
489900,5.833333333333333,0.04
489901,5.836111111111111,0.03
489902,5.838888888888889,0.035
489903,5.841666666666667,0.055
489904,5.844444444444444,0.06
489905,5.847222222222222,0.055
489906,5.85,0.055
489907,5.852777777777778,0.045
489908,5.855555555555555,0.03
489909,5.858333333333333,0.035
489910,5.861111111111111,0.01
489911,5.863888888888889,0.02
489912,5.866666666666666,0.015
489913,5.8694444444444445,0.035
489914,5.872222222222222,0.035
489915,5.875,0.04
489916,5.877777777777778,0.045
489917,5.8805555555555555,0.045
489918,5.883333333333334,0.035
489919,5.886111111111111,0.025
489920,5.888888888888889,0.015
489921,5.891666666666667,0.01
489922,5.894444444444445,0.005
489923,5.897222222222222,0.0
489924,5.9,0.0
489925,5.902777777777778,0.01
489926,5.905555555555556,0.03
489927,5.908333333333333,0.045
489928,5.911111111111111,0.05
489929,5.913888888888889,0.08
489930,5.916666666666667,0.065
489931,5.919444444444444,0.06
489932,5.9222222222222225,0.015
489933,5.925,0.02
489934,5.927777777777778,0.005
489935,5.930555555555555,0.005
489936,5.933333333333334,0.015
489937,5.936111111111111,0.03
489938,5.938888888888889,0.035
489939,5.941666666666666,0.04
489940,5.944444444444445,0.05
489941,5.947222222222222,0.06
489942,5.95,0.055
489943,5.9527777777777775,0.045
489944,5.955555555555556,0.05
489945,5.958333333333333,0.03
489946,5.961111111111111,0.02
489947,5.963888888888889,0.01
489948,5.966666666666667,0.015
489949,5.969444444444444,0.015
489950,5.972222222222222,0.025
489951,5.975,0.03
489952,5.977777777777778,0.04
489953,5.980555555555555,0.03
489954,5.983333333333333,0.025
489955,5.986111111111111,0.025
489956,5.988888888888889,0.01
489957,5.991666666666666,-0.01
489958,5.9944444444444445,-0.005
489959,5.997222222222222,-0.01
489960,6.0,-0.015
489961,6.002777777777778,-0.015
489962,6.0055555555555555,-0.01
489963,6.008333333333334,-0.01
489964,6.011111111111111,-0.015
489965,6.013888888888889,-0.025
489966,6.016666666666667,0.0
489967,6.019444444444445,-0.005
489968,6.022222222222222,-0.02
489969,6.025,-0.02
489970,6.027777777777778,-0.025
489971,6.030555555555556,-0.04
489972,6.033333333333333,-0.025
489973,6.036111111111111,-0.015
489974,6.038888888888889,-0.02
489975,6.041666666666667,-0.015
489976,6.044444444444444,0.005
489977,6.0472222222222225,0.0
489978,6.05,-0.015
489979,6.052777777777778,-0.015
489980,6.055555555555555,-0.025
489981,6.058333333333334,-0.025
489982,6.061111111111111,-0.025
489983,6.063888888888889,-0.02
489984,6.066666666666666,-0.005
489985,6.069444444444445,0.015
489986,6.072222222222222,0.02
489987,6.075,0.035
489988,6.0777777777777775,0.05
489989,6.080555555555556,0.06
489990,6.083333333333333,0.035
489991,6.086111111111111,0.045
489992,6.088888888888889,0.025
489993,6.091666666666667,0.005
489994,6.094444444444444,-0.045
489995,6.097222222222222,-0.135
489996,6.1,-0.22
489997,6.102777777777778,-0.28
489998,6.105555555555555,-0.26
489999,6.108333333333333,-0.2
490000,6.111111111111111,-0.105
490001,6.113888888888889,-0.04
490002,6.116666666666666,-0.025
490003,6.1194444444444445,0.0
490004,6.122222222222222,-0.02
490005,6.125,-0.015
490006,6.127777777777778,-0.055
490007,6.1305555555555555,-0.06
490008,6.133333333333334,-0.06
490009,6.136111111111111,-0.065
490010,6.138888888888889,-0.05
490011,6.141666666666667,-0.04
490012,6.144444444444445,-0.03
490013,6.147222222222222,-0.04
490014,6.15,-0.05
490015,6.152777777777778,-0.06
490016,6.155555555555556,-0.07
490017,6.158333333333333,-0.08
490018,6.161111111111111,-0.08
490019,6.163888888888889,-0.085
490020,6.166666666666667,-0.075
490021,6.169444444444444,-0.07
490022,6.1722222222222225,-0.06
490023,6.175,-0.05
490024,6.177777777777778,-0.03
490025,6.180555555555555,-0.05
490026,6.183333333333334,-0.06
490027,6.186111111111111,-0.065
490028,6.188888888888889,-0.06
490029,6.191666666666666,-0.075
490030,6.194444444444445,-0.085
490031,6.197222222222222,-0.095
490032,6.2,-0.1
490033,6.2027777777777775,-0.1
490034,6.205555555555556,-0.09
490035,6.208333333333333,-0.075
490036,6.211111111111111,-0.07
490037,6.213888888888889,-0.07
490038,6.216666666666667,-0.07
490039,6.219444444444444,-0.07
490040,6.222222222222222,-0.085
490041,6.225,-0.1
490042,6.227777777777778,-0.09
490043,6.230555555555555,-0.105
490044,6.233333333333333,-0.1
490045,6.236111111111111,-0.09
490046,6.238888888888889,-0.075
490047,6.241666666666666,-0.065
490048,6.2444444444444445,-0.06
490049,6.247222222222222,-0.055
490050,6.25,-0.075
490051,6.252777777777778,-0.07
490052,6.2555555555555555,-0.09
490053,6.258333333333334,-0.09
490054,6.261111111111111,-0.1
490055,6.263888888888889,-0.1
490056,6.266666666666667,-0.095
490057,6.269444444444445,-0.095
490058,6.272222222222222,-0.075
490059,6.275,-0.07
490060,6.277777777777778,-0.055
490061,6.280555555555556,-0.075
490062,6.283333333333333,-0.065
490063,6.286111111111111,-0.075
490064,6.288888888888889,-0.085
490065,6.291666666666667,-0.08
490066,6.294444444444444,-0.08
490067,6.2972222222222225,-0.095
490068,6.3,-0.1
490069,6.302777777777778,-0.1
490070,6.305555555555555,-0.095
490071,6.308333333333334,-0.065
490072,6.311111111111111,-0.06
490073,6.313888888888889,-0.06
490074,6.316666666666666,-0.07
490075,6.319444444444445,-0.07
490076,6.322222222222222,-0.08
490077,6.325,-0.09
490078,6.3277777777777775,-0.09
490079,6.330555555555556,-0.1
490080,6.333333333333333,-0.1
490081,6.336111111111111,-0.1
490082,6.338888888888889,-0.095
490083,6.341666666666667,-0.075
490084,6.344444444444444,-0.075
490085,6.347222222222222,-0.09
490086,6.35,-0.09
490087,6.352777777777778,-0.1
490088,6.355555555555555,-0.12
490089,6.358333333333333,-0.13
490090,6.361111111111111,-0.13
490091,6.363888888888889,-0.145
490092,6.366666666666666,-0.145
490093,6.3694444444444445,-0.14
490094,6.372222222222222,-0.135
490095,6.375,-0.145
490096,6.377777777777778,-0.13
490097,6.3805555555555555,-0.13
490098,6.383333333333334,-0.14
490099,6.386111111111111,-0.14
490100,6.388888888888889,-0.155
490101,6.391666666666667,-0.17
490102,6.394444444444445,-0.175
490103,6.397222222222222,-0.165
490104,6.4,-0.195
490105,6.402777777777778,-0.17
490106,6.405555555555556,-0.18
490107,6.408333333333333,-0.165
490108,6.411111111111111,-0.16
490109,6.413888888888889,-0.16
490110,6.416666666666667,-0.165
490111,6.419444444444444,-0.16
490112,6.4222222222222225,-0.175
490113,6.425,-0.19
490114,6.427777777777778,-0.2
490115,6.430555555555555,-0.205
490116,6.433333333333334,-0.185
490117,6.436111111111111,-0.19
490118,6.438888888888889,-0.195
490119,6.441666666666666,-0.19
490120,6.444444444444445,-0.17
490121,6.447222222222222,-0.175
490122,6.45,-0.17
490123,6.4527777777777775,-0.185
490124,6.455555555555556,-0.185
490125,6.458333333333333,-0.205
490126,6.461111111111111,-0.2
490127,6.463888888888889,-0.2
490128,6.466666666666667,-0.22
490129,6.469444444444444,-0.21
490130,6.472222222222222,-0.205
490131,6.475,-0.2
490132,6.477777777777778,-0.185
490133,6.480555555555555,-0.185
490134,6.483333333333333,-0.2
490135,6.486111111111111,-0.19
490136,6.488888888888889,-0.21
490137,6.491666666666666,-0.225
490138,6.4944444444444445,-0.235
490139,6.497222222222222,-0.235
490140,6.5,-0.235
490141,6.502777777777778,-0.225
490142,6.5055555555555555,-0.22
490143,6.508333333333334,-0.215
490144,6.511111111111111,-0.235
490145,6.513888888888889,-0.23
490146,6.516666666666667,-0.23
490147,6.519444444444445,-0.22
490148,6.522222222222222,-0.245
490149,6.525,-0.23
490150,6.527777777777778,-0.24
490151,6.530555555555556,-0.24
490152,6.533333333333333,-0.25
490153,6.536111111111111,-0.25
490154,6.538888888888889,-0.24
490155,6.541666666666667,-0.24
490156,6.544444444444444,-0.22
490157,6.5472222222222225,-0.24
490158,6.55,-0.245
490159,6.552777777777778,-0.245
490160,6.555555555555555,-0.26
490161,6.558333333333334,-0.27
490162,6.561111111111111,-0.27
490163,6.563888888888889,-0.275
490164,6.566666666666666,-0.28
490165,6.569444444444445,-0.27
490166,6.572222222222222,-0.265
490167,6.575,-0.265
490168,6.5777777777777775,-0.26
490169,6.580555555555556,-0.26
490170,6.583333333333333,-0.265
490171,6.586111111111111,-0.27
490172,6.588888888888889,-0.28
490173,6.591666666666667,-0.29
490174,6.594444444444444,-0.295
490175,6.597222222222222,-0.28
490176,6.6,-0.29
490177,6.602777777777778,-0.295
490178,6.605555555555555,-0.285
490179,6.608333333333333,-0.28
490180,6.611111111111111,-0.265
490181,6.613888888888889,-0.28
490182,6.616666666666666,-0.28
490183,6.6194444444444445,-0.28
490184,6.622222222222222,-0.3
490185,6.625,-0.295
490186,6.627777777777778,-0.325
490187,6.6305555555555555,-0.335
490188,6.633333333333334,-0.35
490189,6.636111111111111,-0.345
490190,6.638888888888889,-0.315
490191,6.641666666666667,-0.295
490192,6.644444444444445,-0.28
490193,6.647222222222222,-0.285
490194,6.65,-0.28
490195,6.652777777777778,-0.285
490196,6.655555555555556,-0.28
490197,6.658333333333333,-0.29
490198,6.661111111111111,-0.29
490199,6.663888888888889,-0.3
490200,6.666666666666667,-0.305
490201,6.669444444444444,-0.29
490202,6.6722222222222225,-0.29
490203,6.675,-0.275
490204,6.677777777777778,-0.275
490205,6.680555555555555,-0.28
490206,6.683333333333334,-0.275
490207,6.686111111111111,-0.285
490208,6.688888888888889,-0.275
490209,6.691666666666666,-0.29
490210,6.694444444444445,-0.305
490211,6.697222222222222,-0.31
490212,6.7,-0.29
490213,6.7027777777777775,-0.285
490214,6.705555555555556,-0.28
490215,6.708333333333333,-0.285
490216,6.711111111111111,-0.27
490217,6.713888888888889,-0.275
490218,6.716666666666667,-0.285
490219,6.719444444444444,-0.295
490220,6.722222222222222,-0.31
490221,6.725,-0.335
490222,6.727777777777778,-0.33
490223,6.730555555555555,-0.335
490224,6.733333333333333,-0.34
490225,6.736111111111111,-0.34
490226,6.738888888888889,-0.355
490227,6.741666666666666,-0.365
490228,6.7444444444444445,-0.355
490229,6.747222222222222,-0.36
490230,6.75,-0.37
490231,6.752777777777778,-0.365
490232,6.7555555555555555,-0.375
490233,6.758333333333334,-0.4
490234,6.761111111111111,-0.41
490235,6.763888888888889,-0.425
490236,6.766666666666667,-0.425
490237,6.769444444444445,-0.415
490238,6.772222222222222,-0.405
490239,6.775,-0.405
490240,6.777777777777778,-0.41
490241,6.780555555555556,-0.405
490242,6.783333333333333,-0.415
490243,6.786111111111111,-0.415
490244,6.788888888888889,-0.415
490245,6.791666666666667,-0.435
490246,6.794444444444444,-0.445
490247,6.7972222222222225,-0.455
490248,6.8,-0.46
490249,6.802777777777778,-0.47
490250,6.805555555555555,-0.45
490251,6.808333333333334,-0.42
490252,6.811111111111111,-0.4
490253,6.813888888888889,-0.395
490254,6.816666666666666,-0.36
490255,6.819444444444445,-0.33
490256,6.822222222222222,-0.31
490257,6.825,-0.285
490258,6.8277777777777775,-0.27
490259,6.830555555555556,-0.235
490260,6.833333333333333,-0.23
490261,6.836111111111111,-0.23
490262,6.838888888888889,-0.225
490263,6.841666666666667,-0.215
490264,6.844444444444444,-0.225
490265,6.847222222222222,-0.265
490266,6.85,-0.355
490267,6.852777777777778,-0.47
490268,6.855555555555555,-0.655
490269,6.858333333333333,-0.81
490270,6.861111111111111,-0.92
490271,6.863888888888889,-0.915
490272,6.866666666666666,-0.855
490273,6.8694444444444445,-0.745
490274,6.872222222222222,-0.615
490275,6.875,-0.53
490276,6.877777777777778,-0.455
490277,6.8805555555555555,-0.43
490278,6.883333333333334,-0.43
490279,6.886111111111111,-0.46
490280,6.888888888888889,-0.475
490281,6.891666666666667,-0.51
490282,6.894444444444445,-0.52
490283,6.897222222222222,-0.53
490284,6.9,-0.535
490285,6.902777777777778,-0.52
490286,6.905555555555556,-0.475
490287,6.908333333333333,-0.49
490288,6.911111111111111,-0.465
490289,6.913888888888889,-0.46
490290,6.916666666666667,-0.48
490291,6.919444444444444,-0.485
490292,6.9222222222222225,-0.48
490293,6.925,-0.5
490294,6.927777777777778,-0.505
490295,6.930555555555555,-0.505
490296,6.933333333333334,-0.505
490297,6.936111111111111,-0.51
490298,6.938888888888889,-0.495
490299,6.941666666666666,-0.48
490300,6.944444444444445,-0.47
490301,6.947222222222222,-0.475
490302,6.95,-0.485
490303,6.9527777777777775,-0.475
490304,6.955555555555556,-0.49
490305,6.958333333333333,-0.505
490306,6.961111111111111,-0.49
490307,6.963888888888889,-0.495
490308,6.966666666666667,-0.505
490309,6.969444444444444,-0.49
490310,6.972222222222222,-0.47
490311,6.975,-0.46
490312,6.977777777777778,-0.465
490313,6.980555555555555,-0.46
490314,6.983333333333333,-0.465
490315,6.986111111111111,-0.475
490316,6.988888888888889,-0.48
490317,6.991666666666666,-0.48
490318,6.9944444444444445,-0.485
490319,6.997222222222222,-0.475
490320,7.0,-0.47
490321,7.002777777777778,-0.455
490322,7.0055555555555555,-0.44
490323,7.008333333333334,-0.44
490324,7.011111111111111,-0.415
490325,7.013888888888889,-0.41
490326,7.016666666666667,-0.415
490327,7.019444444444445,-0.42
490328,7.022222222222222,-0.43
490329,7.025,-0.435
490330,7.027777777777778,-0.445
490331,7.030555555555556,-0.445
490332,7.033333333333333,-0.44
490333,7.036111111111111,-0.435
490334,7.038888888888889,-0.425
490335,7.041666666666667,-0.41
490336,7.044444444444444,-0.4
490337,7.0472222222222225,-0.405
490338,7.05,-0.395
490339,7.052777777777778,-0.41
490340,7.055555555555555,-0.42
490341,7.058333333333334,-0.43
490342,7.061111111111111,-0.435
490343,7.063888888888889,-0.43
490344,7.066666666666666,-0.44
490345,7.069444444444445,-0.43
490346,7.072222222222222,-0.415
490347,7.075,-0.41
490348,7.0777777777777775,-0.41
490349,7.080555555555556,-0.415
490350,7.083333333333333,-0.415
490351,7.086111111111111,-0.435
490352,7.088888888888889,-0.435
490353,7.091666666666667,-0.45
490354,7.094444444444444,-0.445
490355,7.097222222222222,-0.45
490356,7.1,-0.455
490357,7.102777777777778,-0.455
490358,7.105555555555555,-0.455
490359,7.108333333333333,-0.45
490360,7.111111111111111,-0.465
490361,7.113888888888889,-0.46
490362,7.116666666666666,-0.47
490363,7.1194444444444445,-0.47
490364,7.122222222222222,-0.495
490365,7.125,-0.52
490366,7.127777777777778,-0.52
490367,7.1305555555555555,-0.53
490368,7.133333333333334,-0.535
490369,7.136111111111111,-0.545
490370,7.138888888888889,-0.535
490371,7.141666666666667,-0.54
490372,7.144444444444445,-0.54
490373,7.147222222222222,-0.55
490374,7.15,-0.55
490375,7.152777777777778,-0.555
490376,7.155555555555556,-0.585
490377,7.158333333333333,-0.585
490378,7.161111111111111,-0.6
490379,7.163888888888889,-0.61
490380,7.166666666666667,-0.63
490381,7.169444444444444,-0.61
490382,7.1722222222222225,-0.6
490383,7.175,-0.585
490384,7.177777777777778,-0.595
490385,7.180555555555555,-0.58
490386,7.183333333333334,-0.59
490387,7.186111111111111,-0.58
490388,7.188888888888889,-0.595
490389,7.191666666666666,-0.6
490390,7.194444444444445,-0.62
490391,7.197222222222222,-0.62
490392,7.2,-0.62
490393,7.2027777777777775,-0.62
490394,7.205555555555556,-0.605
490395,7.208333333333333,-0.595
490396,7.211111111111111,-0.585
490397,7.213888888888889,-0.595
490398,7.216666666666667,-0.59
490399,7.219444444444444,-0.59
490400,7.222222222222222,-0.605
490401,7.225,-0.615
490402,7.227777777777778,-0.615
490403,7.230555555555555,-0.63
490404,7.233333333333333,-0.63
490405,7.236111111111111,-0.625
490406,7.238888888888889,-0.62
490407,7.241666666666666,-0.62
490408,7.2444444444444445,-0.62
490409,7.247222222222222,-0.61
490410,7.25,-0.615
490411,7.252777777777778,-0.635
490412,7.2555555555555555,-0.64
490413,7.258333333333334,-0.665
490414,7.261111111111111,-0.665
490415,7.263888888888889,-0.675
490416,7.266666666666667,-0.67
490417,7.269444444444445,-0.66
490418,7.272222222222222,-0.66
490419,7.275,-0.645
490420,7.277777777777778,-0.65
490421,7.280555555555556,-0.655
490422,7.283333333333333,-0.645
490423,7.286111111111111,-0.66
490424,7.288888888888889,-0.68
490425,7.291666666666667,-0.7
490426,7.294444444444444,-0.685
490427,7.2972222222222225,-0.695
490428,7.3,-0.7
490429,7.302777777777778,-0.68
490430,7.305555555555555,-0.665
490431,7.308333333333334,-0.665
490432,7.311111111111111,-0.65
490433,7.313888888888889,-0.655
490434,7.316666666666666,-0.655
490435,7.319444444444445,-0.655
490436,7.322222222222222,-0.685
490437,7.325,-0.69
490438,7.3277777777777775,-0.7
490439,7.330555555555556,-0.715
490440,7.333333333333333,-0.72
490441,7.336111111111111,-0.72
490442,7.338888888888889,-0.71
490443,7.341666666666667,-0.695
490444,7.344444444444444,-0.69
490445,7.347222222222222,-0.675
490446,7.35,-0.68
490447,7.352777777777778,-0.68
490448,7.355555555555555,-0.685
490449,7.358333333333333,-0.71
490450,7.361111111111111,-0.72
490451,7.363888888888889,-0.735
490452,7.366666666666666,-0.745
490453,7.3694444444444445,-0.73
490454,7.372222222222222,-0.725
490455,7.375,-0.72
490456,7.377777777777778,-0.71
490457,7.3805555555555555,-0.705
490458,7.383333333333334,-0.69
490459,7.386111111111111,-0.705
490460,7.388888888888889,-0.71
490461,7.391666666666667,-0.71
490462,7.394444444444445,-0.715
490463,7.397222222222222,-0.71
490464,7.4,-0.7
490465,7.402777777777778,-0.715
490466,7.405555555555556,-0.695
490467,7.408333333333333,-0.675
490468,7.411111111111111,-0.68
490469,7.413888888888889,-0.665
490470,7.416666666666667,-0.68
490471,7.419444444444444,-0.68
490472,7.4222222222222225,-0.68
490473,7.425,-0.685
490474,7.427777777777778,-0.675
490475,7.430555555555555,-0.67
490476,7.433333333333334,-0.65
490477,7.436111111111111,-0.65
490478,7.438888888888889,-0.65
490479,7.441666666666666,-0.645
490480,7.444444444444445,-0.66
490481,7.447222222222222,-0.66
490482,7.45,-0.675
490483,7.4527777777777775,-0.66
490484,7.455555555555556,-0.69
490485,7.458333333333333,-0.695
490486,7.461111111111111,-0.715
490487,7.463888888888889,-0.7
490488,7.466666666666667,-0.7
490489,7.469444444444444,-0.71
490490,7.472222222222222,-0.71
490491,7.475,-0.705
490492,7.477777777777778,-0.715
490493,7.480555555555555,-0.72
490494,7.483333333333333,-0.75
490495,7.486111111111111,-0.77
490496,7.488888888888889,-0.79
490497,7.491666666666666,-0.83
490498,7.4944444444444445,-0.835
490499,7.497222222222222,-0.855
490500,7.5,-0.82
490501,7.502777777777778,-0.81
490502,7.5055555555555555,-0.795
490503,7.508333333333334,-0.795
490504,7.511111111111111,-0.775
490505,7.513888888888889,-0.79
490506,7.516666666666667,-0.795
490507,7.519444444444445,-0.8
490508,7.522222222222222,-0.795
490509,7.525,-0.82
490510,7.527777777777778,-0.81
490511,7.530555555555556,-0.825
490512,7.533333333333333,-0.845
490513,7.536111111111111,-0.84
490514,7.538888888888889,-0.805
490515,7.541666666666667,-0.79
490516,7.544444444444444,-0.74
490517,7.5472222222222225,-0.685
490518,7.55,-0.61
490519,7.552777777777778,-0.525
490520,7.555555555555555,-0.45
490521,7.558333333333334,-0.39
490522,7.561111111111111,-0.34
490523,7.563888888888889,-0.32
490524,7.566666666666666,-0.3
490525,7.569444444444445,-0.31
490526,7.572222222222222,-0.295
490527,7.575,-0.315
490528,7.5777777777777775,-0.315
490529,7.580555555555556,-0.375
490530,7.583333333333333,-0.49
490531,7.586111111111111,-0.69
490532,7.588888888888889,-0.955
490533,7.591666666666667,-1.18
490534,7.594444444444444,-1.31
490535,7.597222222222222,-1.315
490536,7.6,-1.22
490537,7.602777777777778,-1.06
490538,7.605555555555555,-0.915
490539,7.608333333333333,-0.795
490540,7.611111111111111,-0.74
490541,7.613888888888889,-0.735
490542,7.616666666666666,-0.74
490543,7.6194444444444445,-0.785
490544,7.622222222222222,-0.82
490545,7.625,-0.865
490546,7.627777777777778,-0.87
490547,7.6305555555555555,-0.88
490548,7.633333333333334,-0.865
490549,7.636111111111111,-0.865
490550,7.638888888888889,-0.83
490551,7.641666666666667,-0.825
490552,7.644444444444445,-0.81
490553,7.647222222222222,-0.805
490554,7.65,-0.805
490555,7.652777777777778,-0.805
490556,7.655555555555556,-0.81
490557,7.658333333333333,-0.81
490558,7.661111111111111,-0.81
490559,7.663888888888889,-0.815
490560,7.666666666666667,-0.82
490561,7.669444444444444,-0.81
490562,7.6722222222222225,-0.795
490563,7.675,-0.79
490564,7.677777777777778,-0.775
490565,7.680555555555555,-0.77
490566,7.683333333333334,-0.8
490567,7.686111111111111,-0.785
490568,7.688888888888889,-0.79
490569,7.691666666666666,-0.785
490570,7.694444444444445,-0.785
490571,7.697222222222222,-0.785
490572,7.7,-0.775
490573,7.7027777777777775,-0.775
490574,7.705555555555556,-0.765
490575,7.708333333333333,-0.75
490576,7.711111111111111,-0.735
490577,7.713888888888889,-0.725
490578,7.716666666666667,-0.735
490579,7.719444444444444,-0.745
490580,7.722222222222222,-0.74
490581,7.725,-0.745
490582,7.727777777777778,-0.74
490583,7.730555555555555,-0.74
490584,7.733333333333333,-0.75
490585,7.736111111111111,-0.725
490586,7.738888888888889,-0.715
490587,7.741666666666666,-0.705
490588,7.7444444444444445,-0.7
490589,7.747222222222222,-0.68
490590,7.75,-0.665
490591,7.752777777777778,-0.68
490592,7.7555555555555555,-0.68
490593,7.758333333333334,-0.675
490594,7.761111111111111,-0.675
490595,7.763888888888889,-0.675
490596,7.766666666666667,-0.67
490597,7.769444444444445,-0.66
490598,7.772222222222222,-0.655
490599,7.775,-0.645
490600,7.777777777777778,-0.635
490601,7.780555555555556,-0.615
490602,7.783333333333333,-0.62
490603,7.786111111111111,-0.62
490604,7.788888888888889,-0.63
490605,7.791666666666667,-0.635
490606,7.794444444444444,-0.64
490607,7.7972222222222225,-0.645
490608,7.8,-0.65
490609,7.802777777777778,-0.655
490610,7.805555555555555,-0.645
490611,7.808333333333334,-0.63
490612,7.811111111111111,-0.62
490613,7.813888888888889,-0.625
490614,7.816666666666666,-0.61
490615,7.819444444444445,-0.62
490616,7.822222222222222,-0.64
490617,7.825,-0.655
490618,7.8277777777777775,-0.66
490619,7.830555555555556,-0.675
490620,7.833333333333333,-0.68
490621,7.836111111111111,-0.665
490622,7.838888888888889,-0.665
490623,7.841666666666667,-0.67
490624,7.844444444444444,-0.675
490625,7.847222222222222,-0.685
490626,7.85,-0.72
490627,7.852777777777778,-0.725
490628,7.855555555555555,-0.74
490629,7.858333333333333,-0.75
490630,7.861111111111111,-0.76
490631,7.863888888888889,-0.785
490632,7.866666666666666,-0.785
490633,7.8694444444444445,-0.775
490634,7.872222222222222,-0.76
490635,7.875,-0.775
490636,7.877777777777778,-0.74
490637,7.8805555555555555,-0.76
490638,7.883333333333334,-0.74
490639,7.886111111111111,-0.78
490640,7.888888888888889,-0.79
490641,7.891666666666667,-0.795
490642,7.894444444444445,-0.81
490643,7.897222222222222,-0.8
490644,7.9,-0.815
490645,7.902777777777778,-0.815
490646,7.905555555555556,-0.8
490647,7.908333333333333,-0.8
490648,7.911111111111111,-0.775
490649,7.913888888888889,-0.775
490650,7.916666666666667,-0.775
490651,7.919444444444444,-0.79
490652,7.9222222222222225,-0.815
490653,7.925,-0.805
490654,7.927777777777778,-0.815
490655,7.930555555555555,-0.815
490656,7.933333333333334,-0.82
490657,7.936111111111111,-0.82
490658,7.938888888888889,-0.805
490659,7.941666666666666,-0.8
490660,7.944444444444445,-0.79
490661,7.947222222222222,-0.79
490662,7.95,-0.8
490663,7.9527777777777775,-0.795
490664,7.955555555555556,-0.8
490665,7.958333333333333,-0.815
490666,7.961111111111111,-0.825
490667,7.963888888888889,-0.835
490668,7.966666666666667,-0.85
490669,7.969444444444444,-0.855
490670,7.972222222222222,-0.855
490671,7.975,-0.835
490672,7.977777777777778,-0.835
490673,7.980555555555555,-0.84
490674,7.983333333333333,-0.85
490675,7.986111111111111,-0.855
490676,7.988888888888889,-0.845
490677,7.991666666666666,-0.855
490678,7.9944444444444445,-0.87
490679,7.997222222222222,-0.875
490680,8.0,-0.87
490681,8.002777777777778,-0.875
490682,8.005555555555556,-0.86
490683,8.008333333333333,-0.86
490684,8.011111111111111,-0.85
490685,8.01388888888889,-0.84
490686,8.016666666666667,-0.855
490687,8.019444444444444,-0.88
490688,8.022222222222222,-0.88
490689,8.025,-0.9
490690,8.027777777777779,-0.9
490691,8.030555555555555,-0.915
490692,8.033333333333333,-0.915
490693,8.036111111111111,-0.91
490694,8.03888888888889,-0.9
490695,8.041666666666666,-0.89
490696,8.044444444444444,-0.875
490697,8.047222222222222,-0.88
490698,8.05,-0.88
490699,8.052777777777777,-0.895
490700,8.055555555555555,-0.91
490701,8.058333333333334,-0.93
490702,8.061111111111112,-0.925
490703,8.063888888888888,-0.93
490704,8.066666666666666,-0.935
490705,8.069444444444445,-0.935
490706,8.072222222222223,-0.915
490707,8.075,-0.94
490708,8.077777777777778,-0.92
490709,8.080555555555556,-0.9
490710,8.083333333333334,-0.915
490711,8.08611111111111,-0.925
490712,8.088888888888889,-0.925
490713,8.091666666666667,-0.935
490714,8.094444444444445,-0.95
490715,8.097222222222221,-0.945
490716,8.1,-0.96
490717,8.102777777777778,-0.95
490718,8.105555555555556,-0.93
490719,8.108333333333333,-0.93
490720,8.11111111111111,-0.92
490721,8.113888888888889,-0.915
490722,8.116666666666667,-0.93
490723,8.119444444444444,-0.925
490724,8.122222222222222,-0.92
490725,8.125,-0.92
490726,8.127777777777778,-0.92
490727,8.130555555555556,-0.9
490728,8.133333333333333,-0.895
490729,8.136111111111111,-0.885
490730,8.13888888888889,-0.875
490731,8.141666666666667,-0.88
490732,8.144444444444444,-0.865
490733,8.147222222222222,-0.86
490734,8.15,-0.86
490735,8.152777777777779,-0.865
490736,8.155555555555555,-0.895
490737,8.158333333333333,-0.9
490738,8.161111111111111,-0.89
490739,8.16388888888889,-0.875
490740,8.166666666666666,-0.88
490741,8.169444444444444,-0.85
490742,8.172222222222222,-0.845
490743,8.175,-0.85
490744,8.177777777777777,-0.835
490745,8.180555555555555,-0.835
490746,8.183333333333334,-0.845
490747,8.186111111111112,-0.865
490748,8.188888888888888,-0.875
490749,8.191666666666666,-0.88
490750,8.194444444444445,-0.9
490751,8.197222222222223,-0.92
490752,8.2,-0.925
490753,8.202777777777778,-0.93
490754,8.205555555555556,-0.935
490755,8.208333333333334,-0.93
490756,8.21111111111111,-0.945
490757,8.213888888888889,-0.95
490758,8.216666666666667,-0.965
490759,8.219444444444445,-0.985
490760,8.222222222222221,-1.02
490761,8.225,-1.02
490762,8.227777777777778,-1.04
490763,8.230555555555556,-1.045
490764,8.233333333333333,-1.055
490765,8.23611111111111,-1.05
490766,8.238888888888889,-1.045
490767,8.241666666666667,-1.03
490768,8.244444444444444,-1.035
490769,8.247222222222222,-1.025
490770,8.25,-1.025
490771,8.252777777777778,-1.04
490772,8.255555555555556,-1.045
490773,8.258333333333333,-1.055
490774,8.261111111111111,-1.075
490775,8.26388888888889,-1.1
490776,8.266666666666667,-1.075
490777,8.269444444444444,-1.07
490778,8.272222222222222,-1.05
490779,8.275,-1.02
490780,8.277777777777779,-0.97
490781,8.280555555555555,-0.895
490782,8.283333333333333,-0.8
490783,8.286111111111111,-0.68
490784,8.28888888888889,-0.595
490785,8.291666666666666,-0.525
490786,8.294444444444444,-0.455
490787,8.297222222222222,-0.405
490788,8.3,-0.4
490789,8.302777777777777,-0.38
490790,8.305555555555555,-0.415
490791,8.308333333333334,-0.47
490792,8.311111111111112,-0.625
490793,8.313888888888888,-0.84
490794,8.316666666666666,-1.17
490795,8.319444444444445,-1.485
490796,8.322222222222223,-1.685
490797,8.325,-1.735
490798,8.327777777777778,-1.64
490799,8.330555555555556,-1.445
490800,8.333333333333334,-1.255
490801,8.33611111111111,-1.085
490802,8.338888888888889,-0.98
490803,8.341666666666667,-0.965
490804,8.344444444444445,-0.985
490805,8.347222222222221,-1.0
490806,8.35,-1.045
490807,8.352777777777778,-1.08
490808,8.355555555555556,-1.105
490809,8.358333333333333,-1.095
490810,8.36111111111111,-1.095
490811,8.363888888888889,-1.095
490812,8.366666666666667,-1.1
490813,8.369444444444444,-1.09
490814,8.372222222222222,-1.085
490815,8.375,-1.08
490816,8.377777777777778,-1.07
490817,8.380555555555556,-1.065
490818,8.383333333333333,-1.07
490819,8.386111111111111,-1.08
490820,8.38888888888889,-1.09
490821,8.391666666666667,-1.08
490822,8.394444444444444,-1.095
490823,8.397222222222222,-1.07
490824,8.4,-1.07
490825,8.402777777777779,-1.07
490826,8.405555555555555,-1.065
490827,8.408333333333333,-1.055
490828,8.411111111111111,-1.065
490829,8.41388888888889,-1.04
490830,8.416666666666666,-1.055
490831,8.419444444444444,-1.035
490832,8.422222222222222,-1.045
490833,8.425,-1.055
490834,8.427777777777777,-1.05
490835,8.430555555555555,-1.05
490836,8.433333333333334,-1.055
490837,8.436111111111112,-1.055
490838,8.438888888888888,-1.03
490839,8.441666666666666,-1.03
490840,8.444444444444445,-1.015
490841,8.447222222222223,-1.005
490842,8.45,-1.0
490843,8.452777777777778,-1.0
490844,8.455555555555556,-1.01
490845,8.458333333333334,-1.005
490846,8.46111111111111,-1.025
490847,8.463888888888889,-1.01
490848,8.466666666666667,-0.995
490849,8.469444444444445,-0.98
490850,8.472222222222221,-0.975
490851,8.475,-0.97
490852,8.477777777777778,-0.965
490853,8.480555555555556,-0.95
490854,8.483333333333333,-0.95
490855,8.48611111111111,-0.95
490856,8.488888888888889,-0.95
490857,8.491666666666667,-0.97
490858,8.494444444444444,-0.97
490859,8.497222222222222,-0.955
490860,8.5,-0.955
490861,8.502777777777778,-0.96
490862,8.505555555555556,-0.945
490863,8.508333333333333,-0.93
490864,8.511111111111111,-0.935
490865,8.51388888888889,-0.905
490866,8.516666666666667,-0.905
490867,8.519444444444444,-0.91
490868,8.522222222222222,-0.915
490869,8.525,-0.92
490870,8.527777777777779,-0.935
490871,8.530555555555555,-0.94
490872,8.533333333333333,-0.935
490873,8.536111111111111,-0.945
490874,8.53888888888889,-0.945
490875,8.541666666666666,-0.95
490876,8.544444444444444,-0.93
490877,8.547222222222222,-0.935
490878,8.55,-0.95
490879,8.552777777777777,-0.97
490880,8.555555555555555,-0.97
490881,8.558333333333334,-0.98
490882,8.561111111111112,-1.0
490883,8.563888888888888,-1.005
490884,8.566666666666666,-1.005
490885,8.569444444444445,-1.0
490886,8.572222222222223,-0.995
490887,8.575,-1.005
490888,8.577777777777778,-1.01
490889,8.580555555555556,-1.02
490890,8.583333333333334,-1.03
490891,8.58611111111111,-1.06
490892,8.588888888888889,-1.075
490893,8.591666666666667,-1.095
490894,8.594444444444445,-1.1
490895,8.597222222222221,-1.12
490896,8.6,-1.13
490897,8.602777777777778,-1.12
490898,8.605555555555556,-1.125
490899,8.608333333333333,-1.13
490900,8.61111111111111,-1.115
490901,8.613888888888889,-1.12
490902,8.616666666666667,-1.135
490903,8.619444444444444,-1.14
490904,8.622222222222222,-1.175
490905,8.625,-1.165
490906,8.627777777777778,-1.19
490907,8.630555555555556,-1.2
490908,8.633333333333333,-1.195
490909,8.636111111111111,-1.19
490910,8.63888888888889,-1.18
490911,8.641666666666667,-1.17
490912,8.644444444444444,-1.165
490913,8.647222222222222,-1.185
490914,8.65,-1.185
490915,8.652777777777779,-1.19
490916,8.655555555555555,-1.205
490917,8.658333333333333,-1.22
490918,8.661111111111111,-1.205
490919,8.66388888888889,-1.205
490920,8.666666666666666,-1.2
490921,8.669444444444444,-1.205
490922,8.672222222222222,-1.215
490923,8.675,-1.205
490924,8.677777777777777,-1.185
490925,8.680555555555555,-1.19
490926,8.683333333333334,-1.205
490927,8.686111111111112,-1.195
490928,8.688888888888888,-1.22
490929,8.691666666666666,-1.23
490930,8.694444444444445,-1.245
490931,8.697222222222223,-1.245
490932,8.7,-1.265
490933,8.702777777777778,-1.245
490934,8.705555555555556,-1.24
490935,8.708333333333334,-1.225
490936,8.71111111111111,-1.22
490937,8.713888888888889,-1.23
490938,8.716666666666667,-1.23
490939,8.719444444444445,-1.235
490940,8.722222222222221,-1.255
490941,8.725,-1.26
490942,8.727777777777778,-1.26
490943,8.730555555555556,-1.27
490944,8.733333333333333,-1.27
490945,8.73611111111111,-1.265
490946,8.738888888888889,-1.275
490947,8.741666666666667,-1.26
490948,8.744444444444444,-1.265
490949,8.747222222222222,-1.255
490950,8.75,-1.27
490951,8.752777777777778,-1.27
490952,8.755555555555556,-1.29
490953,8.758333333333333,-1.295
490954,8.761111111111111,-1.315
490955,8.76388888888889,-1.315
490956,8.766666666666667,-1.33
490957,8.769444444444444,-1.32
490958,8.772222222222222,-1.315
490959,8.775,-1.295
490960,8.777777777777779,-1.29
490961,8.780555555555555,-1.265
490962,8.783333333333333,-1.31
490963,8.786111111111111,-1.295
490964,8.78888888888889,-1.315
490965,8.791666666666666,-1.32
490966,8.794444444444444,-1.315
490967,8.797222222222222,-1.32
490968,8.8,-1.33
490969,8.802777777777777,-1.33
490970,8.805555555555555,-1.32
490971,8.808333333333334,-1.325
490972,8.811111111111112,-1.325
490973,8.813888888888888,-1.325
490974,8.816666666666666,-1.325
490975,8.819444444444445,-1.325
490976,8.822222222222223,-1.33
490977,8.825,-1.335
490978,8.827777777777778,-1.375
490979,8.830555555555556,-1.355
490980,8.833333333333334,-1.37
490981,8.83611111111111,-1.38
490982,8.838888888888889,-1.365
490983,8.841666666666667,-1.365
490984,8.844444444444445,-1.35
490985,8.847222222222221,-1.335
490986,8.85,-1.34
490987,8.852777777777778,-1.36
490988,8.855555555555556,-1.365
490989,8.858333333333333,-1.375
490990,8.86111111111111,-1.38
490991,8.863888888888889,-1.37
490992,8.866666666666667,-1.37
490993,8.869444444444444,-1.35
490994,8.872222222222222,-1.33
490995,8.875,-1.32
490996,8.877777777777778,-1.315
490997,8.880555555555556,-1.305
490998,8.883333333333333,-1.3
490999,8.886111111111111,-1.31
491000,8.88888888888889,-1.335
491001,8.891666666666667,-1.31
491002,8.894444444444444,-1.31
491003,8.897222222222222,-1.34
491004,8.9,-1.34
491005,8.902777777777779,-1.3
491006,8.905555555555555,-1.3
491007,8.908333333333333,-1.28
491008,8.911111111111111,-1.26
491009,8.91388888888889,-1.23
491010,8.916666666666666,-1.23
491011,8.919444444444444,-1.235
491012,8.922222222222222,-1.245
491013,8.925,-1.275
491014,8.927777777777777,-1.295
491015,8.930555555555555,-1.315
491016,8.933333333333334,-1.33
491017,8.936111111111112,-1.34
491018,8.938888888888888,-1.335
491019,8.941666666666666,-1.335
491020,8.944444444444445,-1.32
491021,8.947222222222223,-1.325
491022,8.95,-1.345
491023,8.952777777777778,-1.35
491024,8.955555555555556,-1.38
491025,8.958333333333334,-1.395
491026,8.96111111111111,-1.425
491027,8.963888888888889,-1.435
491028,8.966666666666667,-1.47
491029,8.969444444444445,-1.48
491030,8.972222222222221,-1.495
491031,8.975,-1.48
491032,8.977777777777778,-1.475
491033,8.980555555555556,-1.47
491034,8.983333333333333,-1.47
491035,8.98611111111111,-1.475
491036,8.988888888888889,-1.485
491037,8.991666666666667,-1.495
491038,8.994444444444444,-1.505
491039,8.997222222222222,-1.51
491040,9.0,-1.515
491041,9.002777777777778,-1.515
491042,9.005555555555556,-1.495
491043,9.008333333333333,-1.49
491044,9.011111111111111,-1.485
491045,9.01388888888889,-1.47
491046,9.016666666666667,-1.465
491047,9.019444444444444,-1.455
491048,9.022222222222222,-1.41
491049,9.025,-1.355
491050,9.027777777777779,-1.265
491051,9.030555555555555,-1.145
491052,9.033333333333333,-1.01
491053,9.036111111111111,-0.87
491054,9.03888888888889,-0.74
491055,9.041666666666666,-0.635
491056,9.044444444444444,-0.54
491057,9.047222222222222,-0.47
491058,9.05,-0.47
491059,9.052777777777777,-0.47
491060,9.055555555555555,-0.525
491061,9.058333333333334,-0.66
491062,9.061111111111112,-0.915
491063,9.063888888888888,-1.255
491064,9.066666666666666,-1.655
491065,9.069444444444445,-1.94
491066,9.072222222222223,-2.075
491067,9.075,-2.01
491068,9.077777777777778,-1.86
491069,9.080555555555556,-1.66
491070,9.083333333333334,-1.535
491071,9.08611111111111,-1.425
491072,9.088888888888889,-1.42
491073,9.091666666666667,-1.42
491074,9.094444444444445,-1.475
491075,9.097222222222221,-1.505
491076,9.1,-1.545
491077,9.102777777777778,-1.56
491078,9.105555555555556,-1.555
491079,9.108333333333333,-1.545
491080,9.11111111111111,-1.525
491081,9.113888888888889,-1.495
491082,9.116666666666667,-1.485
491083,9.119444444444444,-1.495
491084,9.122222222222222,-1.5
491085,9.125,-1.505
491086,9.127777777777778,-1.52
491087,9.130555555555556,-1.525
491088,9.133333333333333,-1.52
491089,9.136111111111111,-1.52
491090,9.13888888888889,-1.51
491091,9.141666666666667,-1.485
491092,9.144444444444444,-1.47
491093,9.147222222222222,-1.47
491094,9.15,-1.465
491095,9.152777777777779,-1.46
491096,9.155555555555555,-1.455
491097,9.158333333333333,-1.46
491098,9.161111111111111,-1.46
491099,9.16388888888889,-1.47
491100,9.166666666666666,-1.485
491101,9.169444444444444,-1.48
491102,9.172222222222222,-1.48
491103,9.175,-1.46
491104,9.177777777777777,-1.445
491105,9.180555555555555,-1.42
491106,9.183333333333334,-1.405
491107,9.186111111111112,-1.405
491108,9.188888888888888,-1.4
491109,9.191666666666666,-1.405
491110,9.194444444444445,-1.41
491111,9.197222222222223,-1.41
491112,9.2,-1.415
491113,9.202777777777778,-1.395
491114,9.205555555555556,-1.395
491115,9.208333333333334,-1.38
491116,9.21111111111111,-1.365
491117,9.213888888888889,-1.345
491118,9.216666666666667,-1.345
491119,9.219444444444445,-1.34
491120,9.222222222222221,-1.33
491121,9.225,-1.335
491122,9.227777777777778,-1.34
491123,9.230555555555556,-1.35
491124,9.233333333333333,-1.335
491125,9.23611111111111,-1.315
491126,9.238888888888889,-1.3
491127,9.241666666666667,-1.28
491128,9.244444444444444,-1.255
491129,9.247222222222222,-1.24
491130,9.25,-1.245
491131,9.252777777777778,-1.25
491132,9.255555555555556,-1.255
491133,9.258333333333333,-1.26
491134,9.261111111111111,-1.26
491135,9.26388888888889,-1.265
491136,9.266666666666667,-1.27
491137,9.269444444444444,-1.265
491138,9.272222222222222,-1.245
491139,9.275,-1.25
491140,9.277777777777779,-1.235
491141,9.280555555555555,-1.23
491142,9.283333333333333,-1.26
491143,9.286111111111111,-1.255
491144,9.28888888888889,-1.25
491145,9.291666666666666,-1.27
491146,9.294444444444444,-1.295
491147,9.297222222222222,-1.29
491148,9.3,-1.3
491149,9.302777777777777,-1.305
491150,9.305555555555555,-1.31
491151,9.308333333333334,-1.3
491152,9.311111111111112,-1.31
491153,9.313888888888888,-1.32
491154,9.316666666666666,-1.34
491155,9.319444444444445,-1.345
491156,9.322222222222223,-1.37
491157,9.325,-1.375
491158,9.327777777777778,-1.395
491159,9.330555555555556,-1.425
491160,9.333333333333334,-1.455
491161,9.33611111111111,-1.445
491162,9.338888888888889,-1.455
491163,9.341666666666667,-1.455
491164,9.344444444444445,-1.45
491165,9.347222222222221,-1.445
491166,9.35,-1.465
491167,9.352777777777778,-1.46
491168,9.355555555555556,-1.475
491169,9.358333333333333,-1.495
491170,9.36111111111111,-1.5
491171,9.363888888888889,-1.505
491172,9.366666666666667,-1.52
491173,9.369444444444444,-1.505
491174,9.372222222222222,-1.495
491175,9.375,-1.49
491176,9.377777777777778,-1.47
491177,9.380555555555556,-1.46
491178,9.383333333333333,-1.46
491179,9.386111111111111,-1.5
491180,9.38888888888889,-1.5
491181,9.391666666666667,-1.51
491182,9.394444444444444,-1.525
491183,9.397222222222222,-1.53
491184,9.4,-1.55
491185,9.402777777777779,-1.525
491186,9.405555555555555,-1.51
491187,9.408333333333333,-1.495
491188,9.411111111111111,-1.48
491189,9.41388888888889,-1.475
491190,9.416666666666666,-1.475
491191,9.419444444444444,-1.49
491192,9.422222222222222,-1.495
491193,9.425,-1.52
491194,9.427777777777777,-1.535
491195,9.430555555555555,-1.555
491196,9.433333333333334,-1.545
491197,9.436111111111112,-1.53
491198,9.438888888888888,-1.52
491199,9.441666666666666,-1.51
491200,9.444444444444445,-1.49
491201,9.447222222222223,-1.5
491202,9.45,-1.51
491203,9.452777777777778,-1.525
491204,9.455555555555556,-1.53
491205,9.458333333333334,-1.535
491206,9.46111111111111,-1.54
491207,9.463888888888889,-1.54
491208,9.466666666666667,-1.54
491209,9.469444444444445,-1.55
491210,9.472222222222221,-1.54
491211,9.475,-1.535
491212,9.477777777777778,-1.55
491213,9.480555555555556,-1.525
491214,9.483333333333333,-1.525
491215,9.48611111111111,-1.535
491216,9.488888888888889,-1.555
491217,9.491666666666667,-1.555
491218,9.494444444444444,-1.57
491219,9.497222222222222,-1.58
491220,9.5,-1.58
491221,9.502777777777778,-1.58
491222,9.505555555555556,-1.57
491223,9.508333333333333,-1.565
491224,9.511111111111111,-1.565
491225,9.51388888888889,-1.56
491226,9.516666666666667,-1.57
491227,9.519444444444444,-1.565
491228,9.522222222222222,-1.58
491229,9.525,-1.585
491230,9.527777777777779,-1.6
491231,9.530555555555555,-1.6
491232,9.533333333333333,-1.605
491233,9.536111111111111,-1.6
491234,9.53888888888889,-1.59
491235,9.541666666666666,-1.57
491236,9.544444444444444,-1.565
491237,9.547222222222222,-1.56
491238,9.55,-1.555
491239,9.552777777777777,-1.565
491240,9.555555555555555,-1.58
491241,9.558333333333334,-1.585
491242,9.561111111111112,-1.61
491243,9.563888888888888,-1.615
491244,9.566666666666666,-1.625
491245,9.569444444444445,-1.615
491246,9.572222222222223,-1.615
491247,9.575,-1.61
491248,9.577777777777778,-1.59
491249,9.580555555555556,-1.58
491250,9.583333333333334,-1.58
491251,9.58611111111111,-1.605
491252,9.588888888888889,-1.595
491253,9.591666666666667,-1.615
491254,9.594444444444445,-1.61
491255,9.597222222222221,-1.595
491256,9.6,-1.595
491257,9.602777777777778,-1.565
491258,9.605555555555556,-1.545
491259,9.608333333333333,-1.535
491260,9.61111111111111,-1.52
491261,9.613888888888889,-1.505
491262,9.616666666666667,-1.495
491263,9.619444444444444,-1.49
491264,9.622222222222222,-1.5
491265,9.625,-1.515
491266,9.627777777777778,-1.515
491267,9.630555555555556,-1.535
491268,9.633333333333333,-1.54
491269,9.636111111111111,-1.52
491270,9.63888888888889,-1.485
491271,9.641666666666667,-1.465
491272,9.644444444444444,-1.46
491273,9.647222222222222,-1.445
491274,9.65,-1.445
491275,9.652777777777779,-1.465
491276,9.655555555555555,-1.46
491277,9.658333333333333,-1.495
491278,9.661111111111111,-1.495
491279,9.66388888888889,-1.5
491280,9.666666666666666,-1.515
491281,9.669444444444444,-1.515
491282,9.672222222222222,-1.52
491283,9.675,-1.515
491284,9.677777777777777,-1.525
491285,9.680555555555555,-1.515
491286,9.683333333333334,-1.545
491287,9.686111111111112,-1.565
491288,9.688888888888888,-1.595
491289,9.691666666666666,-1.63
491290,9.694444444444445,-1.655
491291,9.697222222222223,-1.675
491292,9.7,-1.705
491293,9.702777777777778,-1.715
491294,9.705555555555556,-1.71
491295,9.708333333333334,-1.705
491296,9.71111111111111,-1.685
491297,9.713888888888889,-1.675
491298,9.716666666666667,-1.665
491299,9.719444444444445,-1.67
491300,9.722222222222221,-1.665
491301,9.725,-1.69
491302,9.727777777777778,-1.685
491303,9.730555555555556,-1.715
491304,9.733333333333333,-1.72
491305,9.73611111111111,-1.725
491306,9.738888888888889,-1.725
491307,9.741666666666667,-1.71
491308,9.744444444444444,-1.705
491309,9.747222222222222,-1.675
491310,9.75,-1.66
491311,9.752777777777778,-1.64
491312,9.755555555555556,-1.615
491313,9.758333333333333,-1.565
491314,9.761111111111111,-1.505
491315,9.76388888888889,-1.405
491316,9.766666666666667,-1.29
491317,9.769444444444444,-1.17
491318,9.772222222222222,-1.05
491319,9.775,-0.89
491320,9.777777777777779,-0.77
491321,9.780555555555555,-0.63
491322,9.783333333333333,-0.535
491323,9.786111111111111,-0.49
491324,9.78888888888889,-0.51
491325,9.791666666666666,-0.625
491326,9.794444444444444,-0.88
491327,9.797222222222222,-1.27
491328,9.8,-1.735
491329,9.802777777777777,-2.105
491330,9.805555555555555,-2.295
491331,9.808333333333334,-2.295
491332,9.811111111111112,-2.12
491333,9.813888888888888,-1.9
491334,9.816666666666666,-1.705
491335,9.819444444444445,-1.6
491336,9.822222222222223,-1.575
491337,9.825,-1.6
491338,9.827777777777778,-1.645
491339,9.830555555555556,-1.7
491340,9.833333333333334,-1.725
491341,9.83611111111111,-1.73
491342,9.838888888888889,-1.72
491343,9.841666666666667,-1.705
491344,9.844444444444445,-1.695
491345,9.847222222222221,-1.68
491346,9.85,-1.665
491347,9.852777777777778,-1.69
491348,9.855555555555556,-1.69
491349,9.858333333333333,-1.7
491350,9.86111111111111,-1.71
491351,9.863888888888889,-1.71
491352,9.866666666666667,-1.705
491353,9.869444444444444,-1.705
491354,9.872222222222222,-1.695
491355,9.875,-1.69
491356,9.877777777777778,-1.685
491357,9.880555555555556,-1.67
491358,9.883333333333333,-1.675
491359,9.886111111111111,-1.68
491360,9.88888888888889,-1.685
491361,9.891666666666667,-1.68
491362,9.894444444444444,-1.675
491363,9.897222222222222,-1.67
491364,9.9,-1.66
491365,9.902777777777779,-1.645
491366,9.905555555555555,-1.645
491367,9.908333333333333,-1.625
491368,9.911111111111111,-1.615
491369,9.91388888888889,-1.595
491370,9.916666666666666,-1.61
491371,9.919444444444444,-1.605
491372,9.922222222222222,-1.595
491373,9.925,-1.6
491374,9.927777777777777,-1.6
491375,9.930555555555555,-1.605
491376,9.933333333333334,-1.595
491377,9.936111111111112,-1.585
491378,9.938888888888888,-1.575
491379,9.941666666666666,-1.565
491380,9.944444444444445,-1.55
491381,9.947222222222223,-1.53
491382,9.95,-1.52
491383,9.952777777777778,-1.53
491384,9.955555555555556,-1.52
491385,9.958333333333334,-1.52
491386,9.96111111111111,-1.53
491387,9.963888888888889,-1.52
491388,9.966666666666667,-1.515
491389,9.969444444444445,-1.5
491390,9.972222222222221,-1.475
491391,9.975,-1.46
491392,9.977777777777778,-1.45
491393,9.980555555555556,-1.42
491394,9.983333333333333,-1.395
491395,9.98611111111111,-1.395
491396,9.988888888888889,-1.4
491397,9.991666666666667,-1.41
491398,9.994444444444444,-1.415
491399,9.997222222222222,-1.405
